463
Q(A-1)	73F(Q)
0.4	-0.26134
0.45	-0.25414
0.5	-0.24631
0.55	-0.24095
0.6	-0.23635
0.65	-0.23112
0.7	-0.22502
0.75	-0.21683
0.8	-0.20985
0.85	-0.20396
0.9	-0.19582
0.95	-0.18564
1	-0.17368
1.05	-0.15935
1.1	-0.14193
1.15	-0.12315
1.2	-0.09956
1.25	-0.07397
1.3	-0.04691
1.35	-0.0196
1.4	0.00426
1.45	0.02286
1.5	0.02967
1.55	0.02854
1.6	0.01813
1.65	0.00168
1.7	-0.01869
1.75	-0.03786
1.8	-0.05615
1.85	-0.07175
1.9	-0.08579
1.95	-0.09634
2	-0.10485
2.05	-0.10962
2.1	-0.11111
2.15	-0.11137
2.2	-0.1086
2.25	-0.1046
2.3	-0.09804
2.35	-0.08705
2.4	-0.07162
2.45	-0.05209
2.5	-0.02758
2.55	-0.00336
2.6	0.01665
2.65	0.02739
2.7	0.02361
2.75	0.01013
2.8	-0.00943
2.85	-0.029
2.9	-0.04702
2.95	-0.06137
3	-0.07143
3.05	-0.07967
3.1	-0.0858
3.15	-0.09082
3.2	-0.09327
3.25	-0.09364
3.3	-0.09541
3.35	-0.09545
3.4	-0.09424
3.45	-0.09125
3.5	-0.08922
3.55	-0.08459
3.6	-0.07994
3.65	-0.07513
3.7	-0.06907
3.75	-0.06361
3.8	-0.05667
3.85	-0.04828
3.9	-0.03841
3.95	-0.02926
4	-0.01944
4.05	-0.00613
4.1	0.00712
4.15	0.02015
4.2	0.03393
4.25	0.049
4.3	0.06473
4.35	0.07824
4.4	0.09183
4.45	0.10374
4.5	0.11473
4.55	0.12428
4.6	0.13223
4.65	0.13952
4.7	0.14566
4.75	0.15121
4.8	0.15487
4.85	0.15856
4.9	0.15997
4.95	0.15772
5	0.15004
5.05	0.13705
5.1	0.11946
5.15	0.09974
5.2	0.07467
5.25	0.04851
5.3	0.02208
5.35	0.00077
5.4	-0.01987
5.45	-0.03773
5.5	-0.05111
5.55	-0.06138
5.6	-0.07064
5.65	-0.0773
5.7	-0.08317
5.75	-0.08555
5.8	-0.08769
5.85	-0.08903
5.9	-0.0898
5.95	-0.08964
6	-0.08911
6.05	-0.0889
6.1	-0.08869
6.15	-0.08826
6.2	-0.08686
6.25	-0.08579
6.3	-0.08517
6.35	-0.08259
6.4	-0.07997
6.45	-0.07738
6.5	-0.07479
6.55	-0.07174
6.6	-0.06624
6.65	-0.05993
6.7	-0.05241
6.75	-0.04447
6.8	-0.03698
6.85	-0.02739
6.9	-0.01791
6.95	-0.00831
7	0.00192
7.05	0.01192
7.1	0.02164
7.15	0.03087
7.2	0.03943
7.25	0.04565
7.3	0.0506
7.35	0.05529
7.4	0.05789
7.45	0.06015
7.5	0.06027
7.55	0.0595
7.6	0.05821
7.65	0.05517
7.7	0.04723
7.75	0.0403
7.8	0.03453
7.85	0.02963
7.9	0.02478
7.95	0.01984
8	0.01538
8.05	0.01294
8.1	0.01057
8.15	0.0098
8.2	0.00942
8.25	0.00862
8.3	0.01091
8.35	0.0111
8.4	0.01042
8.45	0.01242
8.5	0.01411
8.55	0.01478
8.6	0.01591
8.65	0.01738
8.7	0.01851
8.75	0.01872
8.8	0.02012
8.85	0.01958
8.9	0.02016
8.95	0.01891
9	0.01916
9.05	0.0166
9.1	0.0156
9.15	0.01252
9.2	0.00901
9.25	0.00643
9.3	0.0041
9.35	-0.00195
9.4	-0.00469
9.45	-0.00813
9.5	-0.01319
9.55	-0.01734
9.6	-0.02204
9.65	-0.02499
9.7	-0.02707
9.75	-0.0291
9.8	-0.03211
9.85	-0.03404
9.9	-0.03602
9.95	-0.03675
10	-0.03778
10.05	-0.03754
10.1	-0.03815
10.15	-0.03786
10.2	-0.03807
10.25	-0.03802
10.3	-0.03709
10.35	-0.03741
10.4	-0.03609
10.45	-0.03449
10.5	-0.03276
10.55	-0.0314
10.6	-0.02856
10.65	-0.02634
10.7	-0.02389
10.75	-0.02278
10.8	-0.02025
10.85	-0.01558
10.9	-0.01177
10.95	-0.00768
11	-0.00282
11.05	0.00089
11.1	0.00593
11.15	0.01169
11.2	0.01808
11.25	0.02312
11.3	0.0284
11.35	0.03347
11.4	0.03783
11.45	0.04144
11.5	0.04444
11.55	0.04723
11.6	0.04964
11.65	0.05098
11.7	0.05083
11.75	0.05071
11.8	0.04907
11.85	0.04703
11.9	0.04482
11.95	0.04197
12	0.03909
12.05	0.03446
12.1	0.02965
12.15	0.02542
12.2	0.02171
12.25	0.01796
12.3	0.0128
12.35	0.00939
12.4	0.00468
12.45	0.00055
12.5	-0.00284
12.55	-0.00674
12.6	-0.0084
12.65	-0.01063
12.7	-0.01335
12.75	-0.01525
12.8	-0.0171
12.85	-0.01919
12.9	-0.02058
12.95	-0.02147
13	-0.02296
13.05	-0.0236
13.1	-0.02398
13.15	-0.02491
13.2	-0.02575
13.25	-0.02524
13.3	-0.02527
13.35	-0.02616
13.4	-0.0246
13.45	-0.02372
13.5	-0.0228
13.55	-0.02231
13.6	-0.02089
13.65	-0.01915
13.7	-0.01781
13.75	-0.01696
13.8	-0.01513
13.85	-0.01395
13.9	-0.0129
13.95	-0.01115
14	-0.00873
14.05	-0.00738
14.1	-0.00684
14.15	-0.00396
14.2	-0.00308
14.25	-0.00196
14.3	-0.00053
14.35	0.00084
14.4	0.00189
14.45	0.00257
14.5	0.0032
14.55	0.00373
14.6	0.00378
14.65	0.0045
14.7	0.00466
14.75	0.00657
14.8	0.00627
14.85	0.00754
14.9	0.00809
14.95	0.00847
15	0.00909
15.05	0.00954
15.1	0.01053
15.15	0.01093
15.2	0.01191
15.25	0.01269
15.3	0.01365
15.35	0.01456
15.4	0.01603
15.45	0.01731
15.5	0.01767
15.55	0.01896
15.6	0.0193
15.65	0.02012
15.7	0.02021
15.75	0.02035
15.8	0.02
15.85	0.01931
15.9	0.01795
15.95	0.01745
16	0.01614
16.05	0.01482
16.1	0.0138
16.15	0.01172
16.2	0.0102
16.25	0.00772
16.3	0.00567
16.35	0.00286
16.4	-0.00008
16.45	-0.00195
16.5	-0.0056
16.55	-0.00853
16.6	-0.00993
16.65	-0.01147
16.7	-0.0133
16.75	-0.01481
16.8	-0.01709
16.85	-0.01838
16.9	-0.01966
16.95	-0.02001
17	-0.02095
17.05	-0.0219
17.1	-0.02209
17.15	-0.02275
17.2	-0.02262
17.25	-0.02209
17.3	-0.02127
17.35	-0.02087
17.4	-0.02103
17.45	-0.01927
17.5	-0.01891
17.55	-0.01779
17.6	-0.01594
17.65	-0.01461
17.7	-0.01381
17.75	-0.01209
17.8	-0.0106
17.85	-0.00781
17.9	-0.00632
17.95	-0.0049
18	-0.00237
18.05	-0.00066
18.1	0.00112
18.15	0.00291
18.2	0.00454
18.25	0.00629
18.3	0.00764
18.35	0.00966
18.4	0.01004
18.45	0.01129
18.5	0.0128
18.55	0.01208
18.6	0.01401
18.65	0.01443
18.7	0.01494
18.75	0.01447
18.8	0.01452
18.85	0.01412
18.9	0.01355
18.95	0.01404
19	0.01358
19.05	0.01329
19.1	0.01217
19.15	0.01039
19.2	0.01045
19.25	0.00972
19.3	0.00888
19.35	0.00828
19.4	0.00674
19.45	0.00605
19.5	0.00605
19.55	0.00442
19.6	0.00455
19.65	0.00289
19.7	0.00224
19.75	0.00186
19.8	0.00096
19.85	-0.00038
19.9	-0.00072
19.95	-0.00149
20	-0.00184
20.05	-0.00309
20.1	-0.00412
20.15	-0.00425
20.2	-0.00526
20.25	-0.00625
20.3	-0.00655
20.35	-0.00787
20.4	-0.0089
20.45	-0.0089
20.5	-0.01004
20.55	-0.01077
20.6	-0.01129
20.65	-0.0111
20.7	-0.01221
20.75	-0.01241
20.8	-0.01249
20.85	-0.01316
20.9	-0.01337
20.95	-0.01296
21	-0.01287
21.05	-0.01228
21.1	-0.01224
21.15	-0.01202
21.2	-0.01158
21.25	-0.011
21.3	-0.01076
21.35	-0.00979
21.4	-0.00917
21.45	-0.00769
21.5	-0.00783
21.55	-0.00699
21.6	-0.00567
21.65	-0.00491
21.7	-0.00415
21.75	-0.00269
21.8	-0.00226
21.85	-0.0012
21.9	-0.0001
21.95	0.00104
22	0.0024
22.05	0.00312
22.1	0.00363
22.15	0.00075
22.2	0.00555
22.25	0.00647
22.3	0.00762
22.35	0.00828
22.4	0.00856
22.45	0.00939
22.5	0.00926
22.55	0.00894
22.6	0.00979
22.65	0.01019
22.7	0.00967
22.75	0.01054
22.8	0.00985
22.85	0.00949
22.9	0.00947
22.95	0.00931
23	0.00777
23.05	0.00814
23.1	0.00787
23.15	0.00652
23.2	0.00493
23.25	0.00515
23.3	0.00409
23.35	0.00298
23.4	0.00205
23.45	0.00171
23.5	0.00045