          0.025     0.00325644
           0.05    0.007095039
          0.075     0.00440228
     0.09999999    0.007227719
          0.125    0.006556809
           0.15      0.0122447
          0.175     0.01337087
            0.2     0.01313847
          0.225      0.0112195
           0.25       0.011778
          0.275     0.01267421
            0.3     0.01253468
          0.325     0.01167351
           0.35     0.01022083
          0.375     0.01378876
            0.4     0.01650506
          0.425     0.01595414
           0.45     0.01470619
          0.475     0.01325327
            0.5     0.01761317
          0.525     0.02058792
           0.55      0.0213958
          0.575     0.02151221
            0.6     0.02131402
          0.625     0.02632439
           0.65     0.03096938
          0.675     0.03529036
            0.7     0.03932232
          0.725     0.04309607
      0.7499999      0.0466373
          0.775     0.04996955
            0.8     0.05311263
          0.825     0.05608416
           0.85      0.0588997
      0.8749999     0.06157267
            0.9      0.0641157
          0.925     0.06653959
           0.95     0.06885368
          0.975     0.07106704
      0.9999999     0.07318705
          1.025     0.07522112
           1.05      0.0771755
          1.075     0.07905591
            1.1     0.08086723
          1.125     0.08261424
           1.15     0.08430171
          1.175     0.08593357
            1.2     0.08751255
          1.225      0.0745576
           1.25     0.08031684
          1.275       0.105731
            1.3     0.09011608
          1.325     0.08290118
           1.35       0.107257
          1.375      0.1216516
            1.4      0.1233971
          1.425      0.1399979
           1.45      0.1546724
          1.475      0.1648353
            1.5        0.19096
          1.525      0.2008774
           1.55      0.2143638
          1.575      0.2171321
            1.6      0.2400082
          1.625      0.2931545
           1.65      0.3124381
          1.675      0.3556257
            1.7       0.461215
          1.725      0.5113487
           1.75      0.6063312
          1.775      0.7155502
            1.8      0.8118864
          1.825      0.9582766
           1.85       1.139324
          1.875       1.278515
            1.9       1.413801
          1.925       1.504255
           1.95       1.705825
          1.975       1.790117
              2       1.781753
          2.025       1.748515
           2.05        1.71541
          2.075       1.612606
            2.1       1.509672
          2.125       1.411708
           2.15       1.283351
          2.175       1.153087
            2.2       1.075006
          2.225      0.9925503
           2.25      0.8838767
          2.275      0.8355226
            2.3       0.799731
          2.325      0.7133628
           2.35      0.6731561
          2.375      0.6369365
            2.4      0.6061282
          2.425      0.5797113
           2.45      0.5571947
          2.475       0.538084
            2.5       0.518056
          2.525      0.5053592
           2.55      0.4985874
          2.575      0.4795064
            2.6      0.4766946
          2.625      0.4879097
           2.65      0.4957777
          2.675      0.4850662
            2.7      0.4932052
          2.725      0.4823681
           2.75      0.5013887
          2.775      0.5428137
            2.8        0.53149
          2.825      0.5566113
           2.85      0.5920449
          2.875      0.6108671
            2.9      0.6079004
          2.925      0.6407261
           2.95       0.654363
          2.975      0.6903628
              3      0.7092769
          3.025       0.772631
           3.05       0.795684
          3.075       0.827032
            3.1       0.867734
          3.125      0.9520022
           3.15      0.9878877
          3.175        1.05466
            3.2       1.121656
          3.225       1.167171
           3.25       1.235212
          3.275       1.329568
            3.3       1.391116
          3.325       1.454442
           3.35       1.550087
          3.375       1.576608
            3.4       1.691537
          3.425       1.739298
           3.45       1.809838
          3.475       1.891615
            3.5       1.917725
          3.525       1.989389
           3.55       2.044701
          3.575       2.075047
            3.6       2.076665
          3.625       2.075919
           3.65       2.073448
          3.675       2.051892
            3.7       2.020818
          3.725       2.008851
           3.75       1.918872
          3.775        1.81435
            3.8       1.725677
          3.825       1.658815
           3.85       1.584375
          3.875       1.509425
            3.9       1.327798
          3.925       1.234729
           3.95       1.110021
          3.975       1.041492
              4      0.9516843
          4.025      0.8883343
           4.05      0.8055636
          4.075      0.7581296
            4.1      0.6941285
          4.125      0.6747096
           4.15      0.6333634
          4.175      0.5901645
            4.2      0.5793097
          4.225      0.5390563
           4.25      0.5308572
          4.275      0.5169935
            4.3      0.4994826
          4.325      0.5056282
           4.35      0.4963223
          4.375      0.4831918
            4.4      0.4909016
          4.425      0.4863352
           4.45      0.4880245
          4.475      0.4944625
            4.5      0.5034902
          4.525      0.4882233
           4.55      0.4901361
          4.575      0.5047401
            4.6      0.5079376
          4.625      0.5327507
           4.65      0.5444908
          4.675      0.5589825
            4.7       0.554444
          4.725      0.5774726
           4.75      0.5666878
          4.775      0.5964942
            4.8      0.5923983
          4.825      0.6088746
           4.85      0.6348132
          4.875      0.6660287
            4.9      0.6699557
          4.925      0.6897821
           4.95      0.7301036
          4.975      0.7570078
              5       0.746916
          5.025      0.7980136
           5.05       0.827527
          5.075      0.8309496
            5.1      0.8606918
          5.125      0.8938472
           5.15      0.9349301
          5.175      0.9595423
            5.2      0.9913224
          5.225       1.011948
           5.25       1.033225
          5.275       1.064062
            5.3       1.092829
          5.325       1.091951
           5.35       1.115986
          5.375       1.159712
            5.4       1.202237
          5.425       1.203609
           5.45       1.243273
          5.475       1.220753
            5.5       1.258249
          5.525       1.272143
           5.55       1.282298
          5.575       1.294378
            5.6       1.310427
          5.625       1.309378
           5.65       1.349103
          5.675       1.363281
            5.7       1.358175
          5.725        1.35929
           5.75       1.331589
          5.775       1.317908
            5.8        1.33473
          5.825       1.306982
           5.85       1.302681
          5.875       1.280412
            5.9       1.268281
          5.925        1.23113
           5.95       1.220779
          5.975       1.205344
              6       1.169989
          6.025       1.168203
           6.05       1.135971
          6.075       1.083503
            6.1       1.055734
          6.125       1.044349
           6.15       1.052772
          6.175       1.010368
            6.2       1.000379
          6.225      0.9815503
           6.25       1.029185
          6.275      0.9793338
            6.3      0.9687725
          6.325      0.9644338
           6.35      0.9803399
          6.375      0.9783639
            6.4      0.9869731
          6.425      0.9882255
           6.45       0.989179
          6.475      0.9849969
            6.5      0.9734359
          6.525       1.002594
           6.55       1.017171
          6.575       1.018127
            6.6       1.002012
          6.625       1.037634
           6.65       1.046915
          6.675       1.045971
            6.7       1.050452
          6.725       1.057564
           6.75        1.04278
          6.775       1.070964
            6.8       1.105467
          6.825       1.082236
           6.85       1.071692
          6.875       1.091836
            6.9       1.050353
          6.925       1.071977
           6.95       1.049082
          6.975       1.035742
              7       1.014923
          7.025      0.9829053
           7.05      0.9671619
          7.075      0.9541876
            7.1      0.9253954
          7.125      0.9042723
           7.15       0.890808
          7.175      0.8533528
            7.2       0.854243
          7.225      0.8391551
           7.25      0.8264915
          7.275      0.8393565
            7.3      0.7821193
          7.325      0.8163088
           7.35      0.8043965
          7.375       0.782074
            7.4      0.7700229
          7.425      0.7571958
           7.45      0.7653304
          7.475      0.7646733
            7.5      0.7846721
          7.525      0.7933286
           7.55      0.7620643
          7.575      0.7835186
            7.6      0.7834454
          7.625      0.8033785
           7.65      0.8184184
          7.675      0.8236896
            7.7      0.8338548
          7.725      0.8581244
           7.75      0.8595967
          7.775      0.8564461
            7.8      0.8590769
          7.825      0.8783942
           7.85      0.9271554
          7.875      0.8899125
            7.9      0.8982705
          7.925      0.9352207
           7.95      0.9284404
          7.975      0.9399323
              8       0.961996
          8.025      0.9650073
           8.05      0.9982452
          8.075      0.9734437
            8.1      0.9871695
          8.125       1.039267
           8.15        1.04873
          8.175        1.03484
            8.2        1.04427
          8.225       1.049713
           8.25       1.065645
          8.275       1.081689
            8.3       1.058587
          8.325       1.094125
           8.35       1.086287
          8.375       1.126068
            8.4       1.140626
          8.425       1.103177
           8.45        1.15968
          8.475       1.116351
            8.5       1.111599
          8.525       1.117924
           8.55       1.197629
          8.575       1.181729
            8.6       1.231978
          8.625       1.159159
           8.65       1.196829
          8.675       1.238794
            8.7       1.212008
          8.725       1.219689
           8.75       1.195367
          8.775       1.208829
            8.8       1.217792
          8.825       1.217623
           8.85       1.219291
          8.875       1.208012
            8.9       1.187068
          8.925       1.181382
           8.95       1.169716
          8.975       1.205895
              9        1.14935
          9.025       1.165486
           9.05       1.143337
          9.075       1.115622
            9.1       1.101905
          9.125       1.085314
           9.15       1.061809
          9.175       1.077914
            9.2       1.104795
          9.225      0.9956699
           9.25       1.033292
          9.275       0.973464
            9.3       1.013626
          9.325      0.9800867
           9.35      0.9881882
          9.375      0.9396604
            9.4      0.8859649
          9.425      0.9120384
           9.45      0.9276417
          9.475      0.9292399
            9.5      0.9304406
          9.525      0.8841248
           9.55      0.9132127
          9.575      0.9011673
            9.6      0.8749675
          9.625      0.8623621
           9.65      0.8968489
          9.675      0.8750884
            9.7      0.8715054
          9.725      0.8759819
           9.75      0.8896869
          9.775      0.8463155
            9.8      0.8726046
          9.825      0.8555346
           9.85       0.916902
          9.875      0.8789734
            9.9       0.879789
          9.925      0.8693474
           9.95      0.8588988
          9.975      0.8888361
             10      0.8866438
         10.025      0.8641889
          10.05      0.8881423
         10.075      0.8896213
           10.1      0.8910737
         10.125      0.8879979
          10.15      0.8845666
         10.175      0.8874582
           10.2      0.8911498
         10.225      0.8970124
          10.25      0.9033424
         10.275      0.9017473
           10.3      0.8977905
         10.325      0.8996359
          10.35       0.903744
         10.375      0.9080614
           10.4      0.9124915
         10.425      0.9170045
          10.45       0.921576
         10.475      0.9273567
           10.5      0.9341292
         10.525      0.9428604
          10.55      0.9535896
         10.575      0.9678164
           10.6        0.98647
         10.625      0.9961077
          10.65      0.9912471
         10.675      0.9906282
           10.7      0.9987288
         10.725       1.008282
          10.75       1.021571
         10.775        1.03299
           10.8       1.037487
         10.825       1.042802
          10.85        1.05224
         10.875       1.060534
           10.9       1.059135
         10.925       1.058474
          10.95       1.071697
         10.975       1.085035
             11       1.083596
         11.025       1.082079
          11.05       1.084483
         11.075       1.087094
           11.1        1.08839
         11.125       1.089481
          11.15        1.09637
         11.175       1.104466
           11.2       1.109375
         11.225       1.113357
          11.25       1.118383
         11.275       1.123819
           11.3       1.122645
         11.325       1.118065
          11.35       1.112762
         11.375       1.106945
           11.4       1.102599
         11.425        1.09943
          11.45       1.099493
         11.475        1.10285
           11.5       1.103761
         11.525       1.101568
          11.55       1.095595
         11.575       1.083646
           11.6       1.075745
         11.625       1.076256
          11.65       1.075984
         11.675       1.073733
           11.7       1.069937
         11.725       1.060901
          11.75       1.054598
         11.775       1.062773
           11.8       1.069811
         11.825       1.067373
          11.85       1.064111
         11.875       1.048147
           11.9       1.031929
         11.925       1.018875
          11.95       1.005605
         11.975       1.008252
             12       1.010878
         12.025       1.006688
          12.05       1.002392
         12.075      0.9964647
           12.1      0.9904122
         12.125      0.9932764
          12.15      0.9961237
         12.175      0.9925856
           12.2      0.9889538
         12.225      0.9750946
          12.25      0.9610187
         12.275      0.9544937
           12.3      0.9478405
         12.325      0.9483591
          12.35       0.948835
         12.375      0.9350565
           12.4      0.9210668
         12.425      0.9217817
          12.45      0.9224591
         12.475      0.9184728
           12.5      0.9143939
         12.525      0.9049369
          12.55      0.8953226
         12.575      0.8997617
           12.6      0.9042085
         12.625      0.9028155
          12.65      0.9013618
         12.675      0.8965793
           12.7      0.8916982
         12.725      0.8937901
          12.75      0.8958625
         12.775      0.8943709
           12.8      0.8928187
         12.825      0.9018525
          12.85      0.9109459
         12.875      0.9085671
           12.9      0.9061177
         12.925      0.9136345
          12.95      0.9211924
         12.975      0.9188376
             13      0.9164132
         13.025      0.9323474
          13.05      0.9484161
         13.075      0.9516161
           13.1      0.9548073
         13.125      0.9467741
          13.15      0.9386087
         13.175       0.947102
           13.2      0.9556449
         13.225       0.970614
          13.25      0.9857022
         13.275      0.9811842
           13.3      0.9765728
         13.325      0.9868782
          13.35      0.9972517
         13.375      0.9993169
           13.4        1.00136
         13.425       1.012541
          13.45       1.023796
         13.475       1.020552
           13.5       1.017229
         13.525       1.025563
          13.55       1.033939
         13.575       1.038476
           13.6       1.043015
         13.625       1.046568
          13.65       1.050113
         13.675       1.051667
           13.7       1.053192
         13.725       1.056195
          13.75       1.059184
         13.775       1.063569
           13.8       1.067954
         13.825       1.062564
          13.85       1.057075
         13.875       1.069564
           13.9       1.082136
         13.925       1.078063
          13.95       1.073905
         13.975       1.077571
             14        1.08123
         14.025       1.079014
          14.05       1.076733
         14.075        1.08611
           14.1       1.095536
         14.125         1.0812
          14.15       1.066679
         14.175       1.075473
           14.2       1.084311
         14.225       1.070221
          14.25       1.055951
         14.275       1.056795
           14.3       1.057606
         14.325       1.061497
          14.35       1.065384
         14.375        1.05879
           14.4       1.052092
         14.425       1.046115
          14.45       1.040042
         14.475       1.055179
           14.5       1.070419
         14.525       1.056603
          14.55       1.042617
         14.575       1.040081
           14.6       1.037483
         14.625       1.034926
          14.65       1.032308
         14.675       1.016497
           14.7       1.000503
         14.725       1.000776
          14.75       1.001014
         14.775      0.9970224
           14.8      0.9929577
         14.825      0.9881497
          14.85      0.9832627
         14.875      0.9745477
           14.9      0.9657197
         14.925      0.9739509
          14.95      0.9822208
         14.975      0.9587669
             15      0.9350723
         15.025      0.9426518
          15.05      0.9502646
         15.075      0.9332052
           15.1      0.9159633
         15.125      0.9316815
          15.15      0.9475033
         15.175      0.9377851
           15.2      0.9279512
         15.225      0.9225901
          15.25      0.9171517
         15.275       0.915589
           15.3      0.9139811
         15.325      0.9253084
          15.35      0.9367005
         15.375      0.9291363
           15.4      0.9214776
         15.425      0.9276476
          15.45      0.9338381
         15.475       0.933334
           15.5      0.9327943
         15.525      0.9367027
          15.55      0.9406129
         15.575      0.9415658
           15.6      0.9424959
         15.625      0.9442859
          15.65      0.9460602
         15.675      0.9503248
           15.7      0.9545932
         15.725      0.9643727
          15.75      0.9741994
         15.775      0.9774424
           15.8      0.9806799
         15.825       0.975293
          15.85      0.9698331
         15.875       0.963868
           15.9      0.9578263
         15.925      0.9690897
          15.95      0.9804108
         15.975      0.9782575
             16       0.976058
         16.025      0.9940096
          16.05       1.012069
         16.075       1.007835
           16.1       1.003539
         16.125       1.009136
          16.15       1.014746
         16.175       1.015927
           16.2       1.017087
         16.225       1.021703
          16.25       1.026325
         16.275       1.043886
           16.3       1.061548
         16.325       1.063896
          16.35       1.066233
         16.375       1.054812
           16.4       1.043279
         16.425       1.046642
          16.45       1.049999
         16.475       1.052994
           16.5       1.055982
         16.525       1.056282
          16.55       1.056557
         16.575       1.055537
           16.6       1.054483
         16.625       1.051557
          16.65       1.048582
         16.675       1.045472
           16.7       1.042313
         16.725       1.059138
          16.75       1.076052
         16.775       1.065966
           16.8       1.055785
         16.825       1.048044
          16.85       1.040225
         16.875       1.035255
           16.9       1.030226
         16.925       1.051849
          16.95       1.073592
         16.975        1.04877
             17       1.023758
         17.025       1.021515
          17.05       1.019234
         17.075       1.018003
           17.1        1.01674
         17.125       1.023589
          17.15       1.030457
         17.175       1.015833
           17.2       1.001091
         17.225       1.004004
          17.25       1.006914
         17.275       1.017699
           17.3       1.028531
         17.325       1.010931
          17.35      0.9931993
         17.375      0.9977553
           17.4       1.002319
         17.425      0.9993238
          17.45      0.9962881
         17.475      0.9996524
           17.5       1.003016
         17.525      0.9955108
          17.55      0.9879391
         17.575      0.9813198
           17.6      0.9746413
         17.625       0.974772
          17.65      0.9748833
         17.675      0.9678144
           17.7      0.9606825
         17.725      0.9570259
          17.75      0.9533292
         17.775      0.9603602
           17.8      0.9674141
         17.825      0.9693692
          17.85      0.9713169
         17.875      0.9644247
           17.9      0.9574744
         17.925      0.9475228
          17.95      0.9374951
         17.975      0.9527146
             18      0.9680041
         18.025      0.9623754
          18.05      0.9566973
         18.075      0.9564315
           18.1      0.9561468
         18.125      0.9536958
          18.15      0.9512142
         18.175      0.9534665
           18.2      0.9557147
         18.225       0.949981
          18.25      0.9441996
         18.275      0.9548569
           18.3      0.9655566
         18.325      0.9670291
          18.35      0.9684942
         18.375      0.9699252
           18.4      0.9713481
         18.425      0.9691744
          18.45      0.9669722
         18.475      0.9734392
           18.5      0.9799248
         18.525      0.9868659
          18.55      0.9938275
         18.575      0.9909812
           18.6      0.9881043
         18.625      0.9934701
          18.65      0.9988475
         18.675      0.9992414
           18.7      0.9996214
         18.725       1.005125
          18.75       1.010641
         18.775       1.001246
           18.8      0.9917883
         18.825      0.9997742
          18.85       1.007785
         18.875       1.008079
           18.9        1.00836
         18.925       1.023363
          18.95       1.038426
         18.975       1.045979
             19       1.053554
         19.025       1.037769
          19.05       1.021891
         19.075       1.017705
           19.1       1.013484
         19.125       1.028995
          19.15       1.044565
         19.175       1.047351
           19.2       1.050136
         19.225       1.039319
          19.25       1.028437
         19.275       1.039106
           19.3       1.049812
         19.325       1.040028
          19.35       1.030185
         19.375       1.026855
           19.4       1.023496
         19.425       1.033566
          19.45       1.043669
         19.475       1.043355
           19.5       1.043024
         19.525       1.046129
          19.55       1.049233
         19.575       1.036267
           19.6       1.023229
         19.625       1.019697
          19.65       1.016135
         19.675       1.019888
           19.7       1.023643
         19.725       1.024649
          19.75       1.025645
         19.775       1.016278
           19.8       1.006857
         19.825       1.010915
          19.85       1.014977
         19.875       1.008071
           19.9       1.001122
         19.925       1.007584
          19.95       1.014061
         19.975       1.004715
             20      0.9953157
         20.025      0.9996181
          20.05       1.003925
         20.075       1.003497
           20.1       1.003055
         20.125      0.9937859
          20.15      0.9844663
         20.175      0.9803699
           20.2      0.9762443
         20.225      0.9791819
          20.25      0.9821195
         20.275      0.9785844
           20.3      0.9750226
         20.325      0.9791123
          20.35      0.9832076
         20.375      0.9784516
           20.4      0.9736646
         20.425       0.975569
          20.45      0.9774697
         20.475      0.9748653
           20.5      0.9722396
         20.525      0.9749431
          20.55      0.9776461
         20.575      0.9741772
           20.6      0.9706838
         20.625      0.9719045
          20.65      0.9731191
         20.675      0.9746282
           20.7      0.9761329
         20.725      0.9731461
          20.75      0.9701374
         20.775       0.967427
           20.8       0.964696
         20.825      0.9772844
          20.85      0.9899093
         20.875      0.9814284
           20.9      0.9729056
         20.925      0.9715901
          20.95      0.9702599
         20.975      0.9794484
             21      0.9886616
         21.025      0.9787779
          21.05      0.9688479
         21.075      0.9886227
           21.1       1.008459
         21.125      0.9971702
          21.15      0.9858302
         21.175      0.9836022
           21.2       0.981356
         21.225       0.980063
          21.25      0.9787557
         21.275      0.9862634
           21.3      0.9937891
         21.325       1.006873
          21.35       1.019994
         21.375       1.011491
           21.4       1.002949
         21.425       1.004067
          21.45        1.00518
         21.475       1.004539
           21.5       1.003888
         21.525       1.003235
          21.55       1.002572
         21.575       0.997245
           21.6      0.9918925
         21.625       1.006379
          21.65       1.020908
         21.675       1.021099
           21.7       1.021285
         21.725       1.021073
          21.75       1.020855
         21.775       1.021951
           21.8       1.023044
         21.825       1.022288
          21.85       1.021522
         21.875       1.021855
           21.9       1.022183
         21.925       1.020983
          21.95       1.019771
         21.975       1.017063
             22       1.014341
         22.025       1.019647
          22.05       1.024966
         22.075       1.020889
           22.1       1.016795
         22.125        1.02629
          22.15        1.03581
         22.175       1.029349
           22.2       1.022861
         22.225       1.015279
          22.25       1.007668
         22.275       1.008393
           22.3       1.009117
         22.325       1.009742
          22.35       1.010365
         22.375        1.01705
           22.4       1.023753
         22.425       1.017594
          22.45        1.01141
         22.475       1.013747
           22.5       1.016088
         22.525       1.011307
          22.55       1.006508
         22.575       1.007902
           22.6       1.009296
         22.625       1.000387
          22.65      0.9914451
         22.675      0.9938817
           22.7      0.9963237
         22.725      0.9882211
          22.75      0.9800897
         22.775      0.9902707
           22.8       1.000481
         22.825       1.011161
          22.85        1.02187
         22.875       1.001446
           22.9      0.9809554
         22.925      0.9935099
          22.95       1.006102
         22.975       0.995945
             23      0.9857543
         23.025      0.9939948
          23.05       1.002259
         23.075      0.9961883
           23.1      0.9900966
         23.125      0.9885885
          23.15      0.9870726
         23.175      0.9751742
           23.2      0.9632352
         23.225      0.9671857
          23.25       0.971146
         23.275      0.9848268
           23.3      0.9985476
         23.325      0.9842457
          23.35      0.9699004
         23.375      0.9757925
           23.4      0.9817009
         23.425      0.9788198
          23.45      0.9759274
         23.475      0.9725851
           23.5      0.9692321
         23.525      0.9845569
          23.55      0.9999253
         23.575      0.9972644
           23.6      0.9945934
         23.625      0.9966522
          23.65      0.9987153
         23.675      0.9954844
           23.7      0.9922422
         23.725      0.9858075
          23.75       0.979352
         23.775      0.9861412
           23.8      0.9929485
         23.825       0.990087
          23.85       0.987215
         23.875       0.983108
           23.9      0.9789863
         23.925      0.9901344
          23.95       1.001314
         23.975      0.9910995
             24      0.9808518
         24.025      0.9921641
          24.05       1.003507
         24.075        1.00604
           24.1       1.008579
         24.125       1.012064
          24.15       1.015558
         24.175       1.020993
           24.2       1.026442
         24.225       1.019912
          24.25       1.013359
         24.275       1.019998
           24.3       1.026653
         24.325       1.015167
          24.35       1.003647
         24.375       1.002045
           24.4       1.000435
         24.425       1.013336
          24.45       1.026273
         24.475       1.021227
           24.5       1.016164
         24.525       1.009234
          24.55        1.00228
         24.575       1.008846
           24.6       1.015426
         24.625       1.014503
          24.65       1.013573
         24.675       1.016472
           24.7       1.019377
         24.725       1.018161
          24.75        1.01694
         24.775       1.015636
           24.8       1.014325
         24.825       1.005118
          24.85      0.9958819
         24.875      0.9918466
           24.9      0.9877983
         24.925      0.9976525
          24.95       1.007532
         24.975       1.014321
             25       1.021125
         25.025       1.008514
          25.05      0.9958616
         25.075       1.004874
           25.1       1.013907
         25.125      0.9995098
          25.15      0.9850678
         25.175      0.9950515
           25.2       1.005059
         25.225      0.9992859
          25.25      0.9934925
         25.275      0.9987233
           25.3       1.003964
         25.325       1.006918
          25.35       1.009875
         25.375       1.000559
           25.4      0.9912132
         25.425      0.9973749
          25.45       1.003549
         25.475      0.9973545
           25.5      0.9911382
         25.525       1.007619
          25.55       1.024141
         25.575       1.001081
           25.6      0.9779536
         25.625      0.9869961
          25.65      0.9960598
         25.675      0.9901415
           25.7       0.984203
         25.725      0.9920228
          25.75      0.9998595
         25.775       1.000952
           25.8       1.002042
         25.825      0.9911994
          25.85      0.9803232
         25.875      0.9797786
           25.9      0.9792287
         25.925      0.9880676
          25.95      0.9969273
         25.975      0.9961131
             26      0.9952912
         26.025      0.9885163
          26.05      0.9817188
         26.075      0.9878106
           26.1      0.9939144
         26.125      0.9924932
          26.15      0.9910639
         26.175      0.9846809
           26.2      0.9782763
         26.225      0.9821419
          26.25      0.9860141
         26.275      0.9842089
           26.3      0.9823952
         26.325      0.9874031
          26.35      0.9924204
         26.375       0.990402
           26.4      0.9883741
         26.425       0.986208
          26.45      0.9840326
         26.475       0.992718
           26.5       1.001424
         26.525      0.9998754
          26.55      0.9983183
         26.575       0.995666
           26.6       0.993003
         26.625        1.00129
          26.65       1.009596
         26.675       1.000823
           26.7      0.9920207
         26.725       1.006269
          26.75       1.020552
         26.775       1.013911
           26.8       1.007247
         26.825       1.002839
          26.85      0.9984139
         26.875       1.007417
           26.9       1.016441
         26.925       1.011076
          26.95       1.005693
         26.975       1.012251
             27       1.018823
         27.025       1.021517
          27.05       1.024215
         27.075       1.023657
           27.1       1.023095
         27.125       1.013954
          27.15       1.004784
         27.175       1.011422
           27.2       1.018076
         27.225       1.011539
          27.25       1.004982
         27.275        1.00098
           27.3      0.9969636
         27.325       1.004259
          27.35       1.011571
         27.375        1.00956
           27.4       1.007539
         27.425       1.010826
          27.45       1.014119
         27.475       1.018362
           27.5       1.022614
         27.525       1.016879
          27.55       1.011124
         27.575       1.003769
           27.6      0.9963906
         27.625       1.002766
          27.65       1.009156
         27.675       1.007825
           27.7       1.006487
         27.725       1.006353
          27.75       1.006215
         27.775       1.000403
           27.8      0.9945714
         27.825      0.9955559
          27.85      0.9965416
         27.875      0.9950032
           27.9       0.993458
         27.925      0.9974101
          27.95       1.001371
         27.975      0.9986108
             28      0.9958415
         28.025       1.004006
          28.05       1.012191
         28.075      0.9917299
           28.1      0.9712096
         28.125       0.991852
          28.15       1.012552
         28.175       1.009122
           28.2       1.005681
         28.225        1.00336
          28.25        1.00103
         28.275      0.9950056
           28.3      0.9889625
         28.325      0.9837288
          28.35      0.9784801
         28.375      0.9888639
           28.4      0.9992751
         28.425      0.9959596
          28.45      0.9926349
         28.475       0.982448
           28.5      0.9722308
         28.525      0.9792075
          28.55      0.9862018
         28.575      0.9836783
           28.6      0.9811469
         28.625      0.9825915
          28.65      0.9840383
         28.675      0.9836469
           28.7      0.9832518
         28.725      0.9934623
          28.75         1.0037
         28.775      0.9959562
           28.8      0.9881894
         28.825      0.9938077
          28.85      0.9994403
         28.875      0.9924668
           28.9      0.9854721
         28.925      0.9830326
          28.95      0.9805849
         28.975      0.9945581
             29        1.00857
         29.025       1.000694
          29.05      0.9927947
         29.075      0.9977169
           29.1       1.002652
         29.125       1.001674
          29.15       1.000692
         29.175       0.992092
           29.2       0.983466
         29.225      0.9824846
          29.25      0.9814995
         29.275      0.9873825
           29.3      0.9932826
         29.325       1.000368
          29.35       1.007473
         29.375       1.007324
           29.4       1.007173
         29.425       1.004146
          29.45       1.001109
         29.475       1.005567
           29.5       1.010037
         29.525       1.010266
          29.55       1.010495
         29.575       1.013626
           29.6       1.016765
         29.625       1.018379
          29.65       1.019996
         29.675       1.013904
           29.7       1.007795
         29.725        1.00161
          29.75      0.9954067
         29.775      0.9998817
           29.8       1.004369
         29.825       1.011186
          29.85       1.018022
         29.875       1.019446
           29.9       1.020876
         29.925       1.019685
          29.95       1.018491
         29.975        1.01598
             30       1.013464
         30.025       1.021898
          30.05       1.030356
         30.075       1.017222
           30.1       1.004052
         30.125       1.003955
          30.15       1.003857
         30.175       1.005302
           30.2       1.006748
         30.225       1.007788
          30.25        1.00883
         30.275       1.001373
           30.3      0.9938937
         30.325      0.9998755
          30.35       1.005873
         30.375       1.000805
           30.4      0.9957215
         30.425      0.9947697
          30.45      0.9938142
         30.475      0.9997115
           30.5       1.005624
         30.525       1.006795
          30.55       1.007969
         30.575       1.008288
           30.6       1.008607
         30.625       1.004566
          30.65       1.000513
         30.675       1.003131
           30.7       1.005757
         30.725       1.011773
          30.75       1.017806
         30.775         1.0097
           30.8        1.00157
         30.825      0.9940427
          30.85      0.9864936
         30.875      0.9886461
           30.9       0.990804
         30.925      0.9802556
          30.95      0.9696754
         30.975      0.9888591
             31       1.008099
         31.025      0.9926561
          31.05      0.9771672
         31.075      0.9822539
           31.1      0.9873555
         31.125      0.9877902
          31.15      0.9882253
         31.175      0.9873238
           31.2      0.9864194
         31.225      0.9878723
          31.25      0.9893286
         31.275      0.9968677
           31.3       1.004428
         31.325      0.9928955
          31.35      0.9813275
         31.375      0.9767603
           31.4      0.9721784
         31.425      0.9823188
          31.45       0.992489
         31.475      0.9932642
           31.5      0.9940416
         31.525      0.9893293
          31.55      0.9846021
         31.575      0.9893711
           31.6      0.9941537
         31.625      0.9997721
          31.65       1.005407
         31.675       1.000866
           31.7      0.9963104
         31.725       1.003274
          31.75       1.010258
         31.775      0.9972132
           31.8      0.9841283
         31.825      0.9916669
          31.85      0.9992262
         31.875      0.9947689
           31.9      0.9902958
         31.925        1.00148
          31.95       1.012697
         31.975      0.9981849
             32      0.9836283
         32.025      0.9922673
          32.05       1.000929
         32.075       1.004534
           32.1        1.00815
         32.125       1.001891
          32.15      0.9956133
         32.175       1.015685
           32.2       1.035819
         32.225       1.021137
          32.25       1.006408
         32.275       1.002162
           32.3      0.9979038
         32.325       1.017352
          32.35       1.036855
         32.375       1.024182
           32.4       1.011469
         32.425       1.009026
          32.45       1.006574
         32.475       1.002673
           32.5      0.9987563
         32.525       1.000226
          32.55       1.001698
         32.575       1.001639
           32.6       1.001578
         32.625      0.9952501
          32.65      0.9889017
         32.675      0.9963046
           32.7       1.003729
         32.725       1.010445
          32.75       1.017178
         32.775       1.011664
           32.8       1.006131
         32.825       1.005843
          32.85       1.005552
         32.875       1.007257
           32.9       1.008966
         32.925        1.00833
          32.95        1.00769
         32.975       1.002551
             33      0.9973921
         33.025      0.9969997
          33.05      0.9966048
         33.075      0.9983912
           33.1       1.000182
         33.125      0.9950916
          33.15      0.9899846
         33.175       1.004391
           33.2       1.018841
         33.225       1.014044
          33.25       1.009229
         33.275      0.9980922
           33.3      0.9869211
         33.325      0.9988686
          33.35        1.01085
         33.375       1.012159
           33.4       1.013469
         33.425       1.001159
          33.45      0.9888073
         33.475      0.9909667
           33.5      0.9931295
         33.525      0.9958034
          33.55      0.9984832
         33.575      0.9961609
           33.6      0.9938298
         33.625       0.983599
          33.65      0.9733348
         33.675      0.9761418
           33.7      0.9789568
         33.725      0.9941995
          33.75       1.009491
         33.775       1.009373
           33.8       1.009252
         33.825       1.013871
          33.85       1.018501
         33.875       1.010171
           33.9       1.001813
         33.925       1.002112
          33.95       1.002409
         33.975       0.989931
             34      0.9774092
         34.025      0.9837265
          34.05      0.9900601
         34.075       0.999442
           34.1        1.00885
         34.125      0.9990844
          34.15      0.9892858
         34.175      0.9889573
           34.2      0.9886247
         34.225      0.9919012
          34.25      0.9951853
         34.275      0.9896632
           34.3       0.984123
         34.325      0.9886752
          34.35      0.9932388
         34.375      0.9951746
           34.4      0.9971141
         34.425      0.9979082
          34.45      0.9987026
         34.475       1.005365
           34.5       1.012046
         34.525       1.012737
          34.55       1.013427
         34.575       1.004551
           34.6       0.995647
         34.625      0.9882957
          34.65      0.9809188
         34.675      0.9876869
           34.7      0.9944751
         34.725        0.99392
          34.75      0.9933598
         34.775      0.9979107
           34.8       1.002473
         34.825       1.006981
          34.85         1.0115
         34.875       1.011505
           34.9       1.011508
         34.925       1.000456
          34.95       0.989364
         34.975      0.9882931
             35      0.9872155
         35.025      0.9915977
          35.05      0.9959908
         35.075       1.008305
           35.1       1.020655
         35.125       1.009081
          35.15      0.9974677
         35.175       1.008951
           35.2        1.02047
         35.225       1.013117
          35.25       1.005737
         35.275      0.9959676
           35.3      0.9861658
         35.325       1.000651
          35.35       1.015177
         35.375       1.013944
           35.4       1.012705
         35.425       1.007661
          35.45       1.002596
         35.475       1.003108
           35.5       1.003618
         35.525      0.9904436
          35.55      0.9772263
         35.575      0.9856185
           35.6      0.9940347
         35.625       1.009363
          35.65       1.024739
         35.675       1.012082
           35.7      0.9993805
         35.725        1.00336
          35.75        1.00735
         35.775       0.998932
           35.8      0.9904855
         35.825       1.005922
          35.85       1.021404
         35.875       1.006839
           35.9      0.9922252
         35.925      0.9904325
          35.95      0.9886311
         35.975      0.9950384
             36       1.001465
         36.025       1.008753
          36.05       1.016061
         36.075       1.008833
           36.1       1.001582
         36.125       1.002556
          36.15       1.003532
         36.175       1.001924
           36.2       1.000307
         36.225       1.001311
          36.25       1.002315
         36.275        1.00438
           36.3       1.006449
         36.325      0.9953436
          36.35      0.9842021
         36.375      0.9954227
           36.4       1.006678
         36.425       1.005919
          36.45       1.005155
         36.475       1.001184
           36.5      0.9971966
         36.525      0.9960354
          36.55      0.9948686
         36.575      0.9837385
           36.6      0.9725716
         36.625      0.9942803
          36.65       1.016059
         36.675       1.005996
           36.7      0.9958966
         36.725      0.9941105
          36.75      0.9923156
         36.775       1.006611
           36.8       1.020951
         36.825       1.017309
          36.85       1.013654
         36.875       1.000726
           36.9      0.9877543
         36.925       0.997201
          36.95       1.006678
         36.975      0.9920768
             37      0.9774219
         37.025      0.9935113
          37.05        1.00965
         37.075       1.006256
           37.1        1.00285
         37.125      0.9945604
          37.15      0.9862422
         37.175      0.9963831
           37.2       1.006557
         37.225      0.9995202
          37.25      0.9924566
         37.275      0.9999926
           37.3       1.007551
         37.325      0.9915888
          37.35      0.9755747
         37.375      0.9840903
           37.4       0.992633
         37.425      0.9998709
          37.45       1.007132
         37.475      0.9969937
           37.5      0.9868179
         37.525      0.9845263
          37.55      0.9822259
         37.575      0.9868336
           37.6      0.9914547
         37.625      0.9907614
          37.65      0.9900645
         37.675      0.9889851
           37.7      0.9879004
         37.725       1.003272
          37.75       1.018696
         37.775      0.9970682
           37.8      0.9753693
         37.825       1.000051
          37.85       1.024812
         37.875       1.013188
           37.9       1.001524
         37.925       1.004777
          37.95       1.008039
         37.975        1.01286
             38       1.017696
         38.025       1.012323
          38.05       1.006931
         38.075      0.9939339
           38.1      0.9808941
         38.125      0.9934347
          38.15       1.006017
         38.175        1.00521
           38.2       1.004399
         38.225       1.008334
          38.25        1.01228
         38.275       1.013788
           38.3       1.015299
         38.325       1.013635
          38.35       1.011965
         38.375      0.9861345
           38.4      0.9602153
         38.425      0.9850204
          38.45       1.009912
         38.475       1.005702
           38.5       1.001475
         38.525       1.007196
          38.55       1.012933
         38.575       1.011765
           38.6       1.010592
         38.625       1.011307
          38.65       1.012024
         38.675       1.011547
           38.7       1.011067
         38.725       1.011695
          38.75       1.012324
         38.775       1.001353
           38.8      0.9903452
         38.825      0.9927994
          38.85      0.9952606
         38.875      0.9984606
           38.9       1.001671
         38.925        1.01164
          38.95       1.021643
         38.975       1.005111
             39      0.9885175
         39.025      0.9931237
          39.05      0.9977437
         39.075      0.9968604
           39.1      0.9959729
         39.125       1.002165
          39.15       1.008376
         39.175       1.012597
           39.2       1.016832
         39.225       1.002418
          39.25      0.9879507
         39.275      0.9792476
           39.3      0.9705144
         39.325      0.9834625
          39.35      0.9964523
         39.375      0.9995892
           39.4       1.002736
         39.425      0.9933435
          39.45      0.9839162
         39.475      0.9948186
           39.5       1.005758
         39.525      0.9978163
          39.55      0.9898468
         39.575      0.9901375
           39.6       0.990428
         39.625      0.9894157
          39.65      0.9883984
         39.675      0.9757085
           39.7      0.9629714
         39.725      0.9783032
          39.75      0.9936886
         39.775       1.008131
           39.8        1.02262
         39.825       1.007931
          39.85      0.9931917
         39.875       1.012498
           39.9        1.03187
         39.925       1.026492
          39.95       1.021093
         39.975       1.012767
             40       1.004408
         40.025      0.9942691
          40.05      0.9840941
         40.075      0.9920787
           40.1       1.000088
         40.125       1.011698
          40.15       1.023346
         40.175       1.010941
           40.2      0.9984895
         40.225      0.9960912
          40.25      0.9936816
         40.275       1.004323
           40.3       1.014998
         40.325       1.004714
          40.35      0.9943931
         40.375      0.9988077
           40.4       1.003236
         40.425        1.00191
          40.45       1.000576
         40.475       0.991116
           40.5      0.9816186
         40.525       0.994477
          40.55       1.007376
         40.575      0.9969727
           40.6      0.9865321
         40.625      0.9973565
          40.65       1.008216
         40.675       1.005494
           40.7       1.002759
         40.725       1.003506
          40.75       1.004252
         40.775      0.9999996
           40.8      0.9957297
         40.825       1.001342
          40.85        1.00697
         40.875      0.9950131
           40.9      0.9830106
         40.925      0.9948858
          40.95       1.006801
         40.975      0.9943218
             41      0.9817932
         41.025      0.9930676
          41.05       1.004376
         41.075       1.007102
           41.1       1.009832
         41.125       1.014804
          41.15       1.019789
         41.175       1.006761
           41.2      0.9936807
         41.225      0.9977382
          41.25       1.001806
         41.275      0.9895935
           41.3      0.9773358
         41.325      0.9818532
          41.35      0.9863819
         41.375       0.996141
           41.4        1.00593
         41.425       1.000555
          41.45      0.9951552
         41.475       1.002059
           41.5       1.008983
         41.525       1.007287
          41.55        1.00558
         41.575      0.9948218
           41.6      0.9840232
         41.625      0.9975728
          41.65       1.011166
         41.675       1.014264
           41.7       1.017368
         41.725       1.003245
          41.75      0.9890648
         41.775       1.001639
           41.8       1.014252
         41.825      0.9962112
          41.85      0.9781045
         41.875      0.9938828
           41.9       1.009713
         41.925       1.006236
          41.95       1.002742
         41.975      0.9994339
             42      0.9961083
         42.025      0.9966346
          42.05      0.9971579
         42.075      0.9934837
           42.1      0.9897925
         42.125      0.9948187
          42.15      0.9998588
         42.175        1.00335
           42.2        1.00685
         42.225       1.001405
          42.25      0.9959336
         42.275       1.000942
           42.3       1.005964
         42.325       1.011076
          42.35       1.016202
         42.375        1.00326
           42.4      0.9902665
         42.425      0.9882054
          42.45      0.9861318
         42.475      0.9933423
           42.5       1.000575
         42.525      0.9987265
          42.55      0.9968675
         42.575      0.9990654
           42.6       1.001267
         42.625       1.005449
          42.65       1.009642
         42.675       1.017693
           42.7       1.025769
         42.725       1.013165
          42.75       1.000509
         42.775        1.00943
           42.8       1.018377
         42.825      0.9989582
          42.85      0.9794691
         42.875      0.9929323
           42.9       1.006441
         42.925       1.002522
          42.95      0.9985856
         42.975      0.9843519
             43      0.9700609
         43.025      0.9877491
          43.05       1.005494
         43.075       1.007344
           43.1       1.009197
         43.125      0.9994634
          43.15      0.9896923
         43.175      0.9960623
           43.2       1.002453
         43.225       1.004565
          43.25        1.00668
         43.275      0.9950227
           43.3      0.9833218
         43.325      0.9941691
          43.35       1.005052
         43.375       1.011536
           43.4       1.018042
         43.425       1.007043
          43.45      0.9960001
         43.475      0.9991657
           43.5       1.002341
         43.525       1.007223
          43.55        1.01212
         43.575       1.002619
           43.6      0.9930836
         43.625       1.000653
          43.65       1.008248
         43.675       1.005063
           43.7       1.001863
         43.725      0.9920297
          43.75      0.9821566
         43.775      0.9842001
           43.8      0.9862493
         43.825      0.9923252
          43.85      0.9984214
         43.875       1.001892
           43.9       1.005374
         43.925       1.009797
          43.95       1.014235
         43.975       1.014103
             44       1.013969
         44.025       1.002865
          44.05      0.9917222
         44.075      0.9928486
           44.1      0.9939786
         44.125       1.001786
          44.15       1.009622
         44.175       1.007363
           44.2       1.005095
         44.225        1.00312
          44.25       1.001137
         44.275       1.000785
           44.3       1.000431
         44.325      0.9904413
          44.35       0.980417
         44.375      0.9853288
           44.4      0.9902588
         44.425      0.9958231
          44.45       1.001408
         44.475      0.9835064
           44.5      0.9655359
         44.525      0.9742302
          44.55      0.9829547
         44.575      0.9995242
           44.6       1.016152
         44.625       1.012136
          44.65       1.008106
         44.675       1.012438
           44.7       1.016786
         44.725       1.012969
          44.75       1.009136
         44.775       1.006125
           44.8       1.003103
         44.825      0.9979556
          44.85      0.9927903
         44.875       1.006707
           44.9       1.020674
         44.925       1.000329
          44.95      0.9799071
         44.975      0.9771107
             45      0.9743034
         45.025      0.9893782
          45.05       1.004506
         45.075       1.008953
           45.1       1.013415
         45.125       1.003712
          45.15      0.9939737
         45.175       1.004551
           45.2       1.015168
         45.225        1.00954
          45.25        1.00389
         45.275      0.9968003
           45.3      0.9896849
         45.325      0.9972945
          45.35        1.00493
         45.375       1.009308
           45.4       1.013702
         45.425       1.009969
          45.45       1.006221
         45.475       1.001756
           45.5      0.9972732
         45.525      0.9988636
          45.55       1.000458
         45.575       1.009157
           45.6       1.017885
         45.625       1.009894
          45.65       1.001871
         45.675      0.9920217
           45.7      0.9821331
         45.725      0.9789478
          45.75      0.9757484
         45.775      0.9883187
           45.8       1.000931
         45.825      0.9995441
          45.85      0.9981505
         45.875      0.9984346
           45.9      0.9987184
         45.925      0.9907659
          45.95      0.9827813
         45.975      0.9907636
             46      0.9987735
         46.025       1.002578
          46.05       1.006394
         46.075      0.9996632
           46.1      0.9929067
         46.125       0.995819
          46.15      0.9987401
         46.175      0.9940692
           46.2      0.9893781
         46.225       1.001152
          46.25       1.012968
         46.275       1.009536
           46.3       1.006089
         46.325       1.001025
          46.35       0.995939
         46.375       1.007896
           46.4       1.019893
         46.425         1.0046
          46.45      0.9892458
         46.475      0.9988214
           46.5       1.008429
         46.525       1.010947
          46.55       1.013469
         46.575       1.006993
           46.6        1.00049
         46.625       1.010022
          46.65       1.019585
         46.675       1.015037
           46.7       1.010466
         46.725       1.005462
          46.75       1.000433
         46.775       1.002448
           46.8       1.004464
         46.825      0.9967467
          46.85      0.9889975
         46.875       1.001741
           46.9       1.014527
         46.925       1.009756
          46.95       1.004961
         46.975       0.998599
             47      0.9922075
         47.025      0.9966362
          47.05       1.001075
         47.075      0.9960418
           47.1       0.990985
         47.125      0.9889556
          47.15      0.9869134
         47.175      0.9952761
           47.2       1.003665
         47.225      0.9965507
          47.25      0.9894027
         47.275      0.9934897
           47.3      0.9975855
         47.325       0.993032
          47.35      0.9884564
         47.375       1.005083
           47.4       1.021765
         47.425       1.010941
          47.45       1.000069
         47.475       0.985421
           47.5      0.9707094
         47.525      0.9880542
          47.55       1.005454
         47.575      0.9991611
           47.6      0.9928393
         47.625      0.9968366
          47.65       1.000843
         47.675       1.012205
           47.7       1.023604
         47.725       1.004614
          47.75      0.9855447
         47.775      0.9924605
           47.8      0.9993942
         47.825       1.005059
          47.85       1.010739
         47.875        1.00887
           47.9       1.006988
         47.925      0.9920893
          47.95      0.9771275
         47.975      0.9947882
             48        1.01251
         48.025       1.009493
          48.05       1.006458
         48.075      0.9954774
           48.1      0.9844521
         48.125      0.9804702
          48.15      0.9764677
         48.175      0.9776672
           48.2      0.9788653
         48.225      0.9968421
          48.25       1.014882
         48.275       1.004555
           48.3       0.994187
         48.325       1.003562
          48.35       1.012966
         48.375       1.015841
           48.4       1.018722
         48.425       1.021127
          48.45       1.023536
         48.475       1.014986
           48.5       1.006397
         48.525      0.9974224
          48.55      0.9884112
         48.575      0.9957671
           48.6       1.003144
         48.625        1.00178
          48.65       1.000407
         48.675      0.9943861
           48.7      0.9883369
         48.725      0.9927799
          48.75      0.9972348
         48.775      0.9948864
           48.8      0.9925247
         48.825      0.9857922
          48.85      0.9790311
         48.875       0.989152
           48.9      0.9993063
         48.925       1.008991
          48.95        1.01871
         48.975       1.013593
             49       1.008452
         49.025      0.9977705
          49.05      0.9870476
         49.075       1.005033
           49.1       1.023079
         49.125       1.014223
          49.15       1.005331
         49.175       1.001537
           49.2      0.9977241
         49.225       1.001414
          49.25       1.005114
         49.275       1.003018
           49.3       1.000911
         49.325      0.9952818
          49.35        0.98963
         49.375      0.9958781
           49.4       1.002147
         49.425      0.9974155
          49.45      0.9926624
         49.475      0.9926326
           49.5      0.9925987
         49.525       0.998092
          49.55       1.003602
         49.575      0.9879733
           49.6       0.972286
         49.625       1.000511
          49.65       1.028838
         49.675        1.01545
           49.7       1.002008
         49.725       1.001675
          49.75       1.001338
         49.775       0.993027
           49.8      0.9846846
         49.825        1.00023
          49.85        1.01583
         49.875      0.9924167
           49.9      0.9689154
         49.925      0.9814562
          49.95      0.9940436
         49.975       1.001019
             50       1.008018
         50.025      0.9985035
          50.05       0.988952
         50.075      0.9949983
           50.1       1.001065
         50.125       1.002223
          50.15       1.003385
         50.175       1.012339
           50.2       1.021325
         50.225       1.010244
          50.25      0.9991181
         50.275      0.9842054
           50.3      0.9692382
         50.325      0.9906535
          50.35       1.012143
         50.375       1.022829
           50.4       1.033553
         50.425       1.026863
          50.45       1.020146
         50.475       1.016472
           50.5       1.012782
         50.525       1.020567
          50.55       1.028378
         50.575       1.015056
           50.6       1.001685
         50.625       1.000323
          50.65      0.9989556
         50.675      0.9922791
           50.7      0.9855756
         50.725       0.990978
          50.75      0.9963993
         50.775      0.9841151
           50.8      0.9717854
         50.825      0.9886262
          50.85       1.005525
         50.875       1.001267
           50.9      0.9969911
         50.925       1.006485
          50.95       1.016013
         50.975      0.9988514
             51      0.9816216
         51.025      0.9885313
          51.05      0.9954637
         51.075      0.9980422
           51.1       1.000628
         51.125      0.9974564
          51.15      0.9942713
         51.175      0.9869061
           51.2      0.9795101
         51.225      0.9903186
          51.25       1.001166
         51.275       0.995946
           51.3      0.9907054
         51.325       1.008834
          51.35       1.027024
         51.375        1.01842
           51.4       1.009782
         51.425       1.004299
          51.45      0.9987916
         51.475      0.9937723
           51.5      0.9887301
         51.525      0.9852863
          51.55       0.981827
         51.575      0.9975961
           51.6       1.013418
         51.625       1.003133
          51.65      0.9928077
         51.675      0.9972211
           51.7       1.001648
         51.725       1.004105
          51.75       1.006568
         51.775      0.9947363
           51.8      0.9828592
         51.825      0.9862055
          51.85      0.9895599
         51.875      0.9963572
           51.9       1.003177
         51.925       1.014656
          51.95       1.026175
         51.975       1.021134
             52       1.016069
         52.025      0.9979075
          52.05      0.9796788
         52.075      0.9852747
           52.1      0.9908875
         52.125      0.9992676
          52.15       1.007675
         52.175       1.012676
           52.2       1.017691
         52.225       1.012915
          52.25       1.008117
         52.275       1.004956
           52.3        1.00178
         52.325       1.004299
          52.35       1.006822
         52.375      0.9910416
           52.4       0.975199
         52.425      0.9860879
          52.45       0.997014
         52.475      0.9971226
           52.5      0.9972269
         52.525      0.9957249
          52.55      0.9942135
         52.575      0.9871601
           52.6      0.9800772
         52.625      0.9892379
          52.65      0.9984273
         52.675       1.019366
           52.7        1.04038
         52.725       1.009447
          52.75      0.9783899
         52.775      0.9745942
           52.8      0.9707797
         52.825      0.9840837
          52.85        0.99743
         52.875        1.00366
           52.9       1.009909
         52.925      0.9995875
          52.95      0.9892217
         52.975      0.9874481
             53      0.9856626
         53.025      0.9861028
          53.05       0.986539
         53.075       1.006108
           53.1        1.02574
         53.125       1.016809
          53.15        1.00784
         53.175       1.013816
           53.2       1.019811
         53.225       1.011469
          53.25        1.00309
         53.275       1.001273
           53.3      0.9994462
         53.325       1.004778
          53.35       1.010124
         53.375        1.00265
           53.4      0.9951435
         53.425       1.006837
          53.45        1.01857
         53.475       1.006922
           53.5      0.9952225
         53.525       0.992518
          53.55       0.989799
         53.575      0.9978019
           53.6       1.005828
         53.625       1.007111
          53.65       1.008393
         53.675       1.006182
           53.7       1.003957
         53.725       1.005643
          53.75        1.00733
         53.775      0.9984654
           53.8      0.9895647
         53.825      0.9956563
          53.85       1.001764
         53.875       1.003603
           53.9       1.005444
         53.925       1.006414
          53.95       1.007382
         53.975       1.006159
             54       1.004926
         54.025       1.009984
          54.05       1.015054
         54.075       1.014934
           54.1       1.014811
         54.125      0.9976671
          54.15      0.9804569
         54.175      0.9882816
           54.2      0.9961312
         54.225      0.9983161
          54.25       1.000504
         54.275      0.9949611
           54.3      0.9893943
         54.325       1.000132
          54.35       1.010903
         54.375       1.002642
           54.4      0.9943458
         54.425      0.9934045
          54.45      0.9924549
         54.475       1.000442
           54.5       1.008456
         54.525       1.004976
          54.55        1.00148
         54.575      0.9912616
           54.6      0.9810033
         54.625      0.9897511
          54.65      0.9985268
         54.675         1.0017
           54.7       1.004881
         54.725      0.9849461
          54.75      0.9649317
         54.775      0.9875835
           54.8        1.01031
         54.825       1.006313
          54.85       1.002298
         54.875      0.9966608
           54.9      0.9910004
         54.925      0.9886636
          54.95       0.986314
         54.975      0.9807498
             55      0.9751604
