Q,F,dF
0.025,0.00325644,0.009726505928713637
0.05,0.007095039,0.009726505928713637
0.075,0.00440228,0.009726505928713637
0.09999999,0.007227719,0.009726505928713637
0.125,0.006556809,0.009726505928713637
0.15,0.0122447,0.009726505928713637
0.175,0.01337087,0.009726505928713637
0.2,0.01313847,0.009726505928713637
0.225,0.0112195,0.009726505928713637
0.25,0.011778,0.009726505928713637
0.275,0.01267421,0.009726505928713637
0.3,0.01253468,0.009726505928713637
0.325,0.01167351,0.009726505928713637
0.35,0.01022083,0.009726505928713637
0.375,0.01378876,0.009726505928713637
0.4,0.01650506,0.009726505928713637
0.425,0.01595414,0.009726505928713637
0.45,0.01470619,0.009726505928713637
0.475,0.01325327,0.009726505928713637
0.5,0.01761317,0.009726505928713637
0.525,0.02058792,0.009726505928713637
0.55,0.0213958,0.009726505928713637
0.575,0.02151221,0.009726505928713637
0.6,0.02131402,0.009726505928713637
0.625,0.02632439,0.009726505928713637
0.65,0.03096938,0.009726505928713637
0.675,0.03529036,0.009726505928713637
0.7,0.03932232,0.009726505928713637
0.725,0.04309607,0.009726505928713637
0.7499999,0.0466373,0.009726505928713637
0.775,0.04996955,0.009726505928713637
0.8,0.05311263,0.009726505928713637
0.825,0.05608416,0.009726505928713637
0.85,0.0588997,0.009726505928713637
0.8749999,0.06157267,0.009726505928713637
0.9,0.0641157,0.009726505928713637
0.925,0.06653959,0.009726505928713637
0.95,0.06885368,0.009726505928713637
0.975,0.07106704,0.009726505928713637
0.9999999,0.07318705,0.009726505928713637
1.025,0.07522112,0.009726505928713637
1.05,0.0771755,0.009726505928713637
1.075,0.07905591,0.009726505928713637
1.1,0.08086723,0.009726505928713637
1.125,0.08261424,0.009726505928713637
1.15,0.08430171,0.009726505928713637
1.175,0.08593357,0.009726505928713637
1.2,0.08751255,0.009726505928713637
1.225,0.0745576,0.01017363484848513
1.25,0.08031684,0.009726505928713637
1.275,0.105731,0.018197084685314405
1.3,0.09011608,0.009726505928713637
1.325,0.08290118,0.014587626060606387
1.35,0.107257,0.009726505928713637
1.375,0.1216516,0.009726505928713637
1.4,0.1233971,0.009726505928713637
1.425,0.1399979,0.009726505928713637
1.45,0.1546724,0.009726505928713637
1.475,0.1648353,0.009726505928713637
1.5,0.19096,0.010936334032633416
1.525,0.2008774,0.009726505928713637
1.55,0.2143638,0.009726505928713637
1.575,0.2171321,0.009726505928713637
1.6,0.2400082,0.009726505928713637
1.625,0.2931545,0.014717327972027017
1.65,0.3124381,0.009726505928713637
1.675,0.3556257,0.019284173193474474
1.7,0.461215,0.021111477156175673
1.725,0.5113487,0.009726505928713637
1.75,0.6063312,0.009726505928713637
1.775,0.7155502,0.009726505928713637
1.8,0.8118864,0.03189679627039921
1.825,0.9582766,0.010934588578091708
1.85,1.139324,0.023960758974355345
1.875,1.278515,0.009726505928713637
1.9,1.413801,0.011518290909095619
1.925,1.504255,0.05651126806527329
1.95,1.705825,0.038298073659668086
1.975,1.790117,0.053381307692302205
2.0,1.781753,0.013707701631695768
2.025,1.748515,0.010915016317021964
2.05,1.71541,0.009726505928713637
2.075,1.612606,0.009726505928713637
2.1,1.509672,0.009726505928713637
2.125,1.411708,0.009726505928713637
2.15,1.283351,0.009726505928713637
2.175,1.153087,0.020397330769234667
2.2,1.075006,0.009726505928713637
2.225,0.9925503,0.009726505928713637
2.25,0.8838767,0.01952925804196104
2.275,0.8355226,0.009726505928713637
2.3,0.799731,0.02312357808857546
2.325,0.7133628,0.009726505928713637
2.35,0.6731561,0.009726505928713637
2.375,0.6369365,0.009726505928713637
2.4,0.6061282,0.009726505928713637
2.425,0.5797113,0.009726505928713637
2.45,0.5571947,0.009726505928713637
2.475,0.538084,0.009726505928713637
2.5,0.518056,0.009726505928713637
2.525,0.5053592,0.009726505928713637
2.55,0.4985874,0.009726505928713637
2.575,0.4795064,0.009726505928713637
2.6,0.4766946,0.009726505928713637
2.625,0.4879097,0.009726505928713637
2.65,0.4957777,0.014739668298366648
2.675,0.4850662,0.009726505928713637
2.7,0.4932052,0.009726505928713637
2.725,0.4823681,0.015361987179488779
2.75,0.5013887,0.009726505928713637
2.775,0.5428137,0.019168475757573966
2.8,0.53149,0.010666188344990113
2.825,0.5566113,0.009726505928713637
2.85,0.5920449,0.010139717249415314
2.875,0.6108671,0.010701560139858235
2.9,0.6079004,0.009726505928713637
2.925,0.6407261,0.009726505928713637
2.95,0.654363,0.009726505928713637
2.975,0.6903628,0.009726505928713637
3.0,0.7092769,0.009726505928713637
3.025,0.772631,0.017993314918412384
3.05,0.795684,0.009726505928713637
3.075,0.827032,0.009726505928713637
3.1,0.867734,0.017444623310026275
3.125,0.9520022,0.014340791608388637
3.15,0.9878877,0.009726505928713637
3.175,1.05466,0.009726505928713637
3.2,1.121656,0.009726505928713637
3.225,1.167171,0.01152239766900176
3.25,1.235212,0.012465168065272314
3.275,1.329568,0.013453277855473456
3.3,1.391116,0.009726505928713637
3.325,1.454442,0.009726505928713637
3.35,1.550087,0.017247237762232803
3.375,1.576608,0.030174002331007754
3.4,1.691537,0.016848545454539954
3.425,1.739298,0.009726505928713637
3.45,1.809838,0.009726505928713637
3.475,1.891615,0.014121468531462344
3.5,1.917725,0.023764692307699065
3.525,1.989389,0.009726505928713637
3.55,2.044701,0.011968708624701563
3.575,2.075047,0.01308956876456202
3.6,2.076665,0.009726505928713637
3.625,2.075919,0.010035727272734274
3.65,2.073448,0.009726505928713637
3.675,2.051892,0.009726505928713637
3.7,2.020818,0.009726505928713637
3.725,2.008851,0.038060643356636836
3.75,1.918872,0.013147575757569419
3.775,1.81435,0.024633004662010682
3.8,1.725677,0.03114931235431828
3.825,1.658815,0.009726505928713637
3.85,1.584375,0.02391235431234917
3.875,1.509425,0.05080225827505336
3.9,1.327798,0.02467147995338448
3.925,1.234729,0.010182984382288707
3.95,1.110021,0.02582879650350045
3.975,1.041492,0.009726505928713637
4.0,0.9516843,0.009726505928713637
4.025,0.8883343,0.009988888111885141
4.05,0.8055636,0.009726505928713637
4.075,0.7581296,0.009726505928713637
4.1,0.6941285,0.012992820979023434
4.125,0.6747096,0.010373437995335744
4.15,0.6333634,0.009726505928713637
4.175,0.5901645,0.009726505928713637
4.2,0.5793097,0.009726505928713637
4.225,0.5390563,0.009726505928713637
4.25,0.5308572,0.009726505928713637
4.275,0.5169935,0.009726505928713637
4.3,0.4994826,0.009726505928713637
4.325,0.5056282,0.009726505928713637
4.35,0.4963223,0.009726505928713637
4.375,0.4831918,0.009726505928713637
4.4,0.4909016,0.009726505928713637
4.425,0.4863352,0.009726505928713637
4.45,0.4880245,0.009726505928713637
4.475,0.4944625,0.009726505928713637
4.5,0.5034902,0.011946488111886422
4.525,0.4882233,0.009726505928713637
4.55,0.4901361,0.009726505928713637
4.575,0.5047401,0.009726505928713637
4.6,0.5079376,0.009726505928713637
4.625,0.5327507,0.009726505928713637
4.65,0.5444908,0.009726505928713637
4.675,0.5589825,0.009726505928713637
4.7,0.554444,0.009726505928713637
4.725,0.5774726,0.009726505928713637
4.75,0.5666878,0.009726505928713637
4.775,0.5964942,0.009726505928713637
4.8,0.5923983,0.009726505928713637
4.825,0.6088746,0.009726505928713637
4.85,0.6348132,0.009726505928713637
4.875,0.6660287,0.009726505928713637
4.9,0.6699557,0.009726505928713637
4.925,0.6897821,0.009726505928713637
4.95,0.7301036,0.009726505928713637
4.975,0.7570078,0.011960929603727077
5.0,0.746916,0.02023160582750838
5.025,0.7980136,0.009726505928713637
5.05,0.827527,0.012480391841489191
5.075,0.8309496,0.009726505928713637
5.1,0.8606918,0.009726505928713637
5.125,0.8938472,0.009726505928713637
5.15,0.9349301,0.009726505928713637
5.175,0.9595423,0.009726505928713637
5.2,0.9913224,0.009726505928713637
5.225,1.011948,0.009726505928713637
5.25,1.033225,0.009726505928713637
5.275,1.064062,0.009726505928713637
5.3,1.092829,0.01104797482517128
5.325,1.091951,0.012989353379956992
5.35,1.115986,0.018537939393943104
5.375,1.159712,0.009726505928713637
5.4,1.202237,0.020133909090905178
5.425,1.203609,0.009726505928713637
5.45,1.243273,0.015418522144517999
5.475,1.220753,0.023203258741262944
5.5,1.258249,0.009726505928713637
5.525,1.272143,0.009726505928713637
5.55,1.282298,0.009726505928713637
5.575,1.294378,0.009726505928713637
5.6,1.310427,0.009726505928713637
5.625,1.309378,0.019160867132871795
5.65,1.349103,0.009726505928713637
5.675,1.363281,0.014964629370624705
5.7,1.358175,0.009726505928713637
5.725,1.35929,0.009726505928713637
5.75,1.331589,0.014172505827510173
5.775,1.317908,0.015151331002335455
5.8,1.33473,0.012043389277384797
5.825,1.306982,0.009726505928713637
5.85,1.302681,0.009726505928713637
5.875,1.280412,0.009726505928713637
5.9,1.268281,0.009726505928713637
5.925,1.23113,0.009726505928713637
5.95,1.220779,0.009726505928713637
5.975,1.205344,0.009726505928713637
6.0,1.169989,0.009726505928713637
6.025,1.168203,0.01974350116549739
6.05,1.135971,0.011089571095567408
6.075,1.083503,0.014357790209793775
6.1,1.055734,0.017425445687649255
6.125,1.044349,0.009726505928713637
6.15,1.052772,0.02432874265733931
6.175,1.010368,0.009726505928713637
6.2,1.000379,0.010219550349653828
6.225,0.9815503,0.018121307692311017
6.25,1.029185,0.039546760372957124
6.275,0.9793338,0.009726505928713637
6.3,0.9687725,0.011011827972031263
6.325,0.9644338,0.013319210955714311
6.35,0.9803399,0.009726505928713637
6.375,0.9783639,0.009726505928713637
6.4,0.9869731,0.009726505928713637
6.425,0.9882255,0.009726505928713637
6.45,0.989179,0.009726505928713637
6.475,0.9849969,0.009726505928713637
6.5,0.9734359,0.018722683216786495
6.525,1.002594,0.009726505928713637
6.55,1.017171,0.013291699999996798
6.575,1.018127,0.009726505928713637
6.6,1.002012,0.02154181048951398
6.625,1.037634,0.009726505928713637
6.65,1.046915,0.009726505928713637
6.675,1.045971,0.009726505928713637
6.7,1.050452,0.009726505928713637
6.725,1.057564,0.009726505928713637
6.75,1.04278,0.021112386946390505
6.775,1.070964,0.009726505928713637
6.8,1.105467,0.027637983682980094
6.825,1.082236,0.009726505928713637
6.85,1.071692,0.011085067599071241
6.875,1.091836,0.010835806526803049
6.9,1.050353,0.02169912634032989
6.925,1.071977,0.012899922377618944
6.95,1.049082,0.009726505928713637
6.975,1.035742,0.009726505928713637
7.0,1.014923,0.009726505928713637
7.025,0.9829053,0.010242250116553442
7.05,0.9671619,0.009726505928713637
7.075,0.9541876,0.009726505928713637
7.1,0.9253954,0.009726505928713637
7.125,0.9042723,0.009726505928713637
7.15,0.890808,0.009726505928713637
7.175,0.8533528,0.016297482284385212
7.2,0.854243,0.009726505928713637
7.225,0.8391551,0.009726505928713637
7.25,0.8264915,0.009726505928713637
7.275,0.8393565,0.018931997435894687
7.3,0.7821193,0.03183990466200748
7.325,0.8163088,0.01419536363636087
7.35,0.8043965,0.01234491165500895
7.375,0.782074,0.009726505928713637
7.4,0.7700229,0.009726505928713637
7.425,0.7571958,0.016465767599070147
7.45,0.7653304,0.009726505928713637
7.475,0.7646733,0.009726505928713637
7.5,0.7846721,0.013589188344985792
7.525,0.7933286,0.018585566899764427
7.55,0.7620643,0.018390569463872075
7.575,0.7835186,0.009726505928713637
7.6,0.7834454,0.009726505928713637
7.625,0.8033785,0.009726505928713637
7.65,0.8184184,0.009726505928713637
7.675,0.8236896,0.009726505928713637
7.7,0.8338548,0.009726505928713637
7.725,0.8581244,0.014496242424239636
7.75,0.8595967,0.009726505928713637
7.775,0.8564461,0.009726505928713637
7.8,0.8590769,0.014238495571098353
7.825,0.8783942,0.009726505928713637
7.85,0.9271554,0.03553023473193173
7.875,0.8899125,0.011994832867135874
7.9,0.8982705,0.01575531165501487
7.925,0.9352207,0.012639514452211453
7.95,0.9284404,0.009726505928713637
7.975,0.9399323,0.009726505928713637
8.0,0.961996,0.009726505928713637
8.025,0.9650073,0.009726505928713637
8.05,0.9982452,0.01893693916083594
8.075,0.9734437,0.0217394494172527
8.1,0.9871695,0.02119767365967684
8.125,1.039267,0.02040925687645334
8.15,1.04873,0.019256519114215553
8.175,1.03484,0.009726505928713637
8.2,1.04427,0.009726505928713637
8.225,1.049713,0.009726505928713637
8.25,1.065645,0.009726505928713637
8.275,1.081689,0.01640579487179128
8.3,1.058587,0.022755058275061968
8.325,1.094125,0.009726505928713637
8.35,1.086287,0.016522270396273964
8.375,1.126068,0.012082205128201462
8.4,1.140626,0.01859670629370247
8.425,1.103177,0.019263599067602666
8.45,1.15968,0.03516824009323627
8.475,1.116351,0.010908899766903568
8.5,1.111599,0.027997410256414224
8.525,1.117924,0.03238719813520197
8.55,1.197629,0.03565531468531091
8.575,1.181729,0.009726505928713637
8.6,1.231978,0.03848417482517075
8.625,1.159159,0.048796233100237174
8.65,1.196829,0.015332107226111225
8.675,1.238794,0.031105114219110108
8.7,1.212008,0.009726505928713637
8.725,1.219689,0.00979043123542711
8.75,1.195367,0.022928214452218487
8.775,1.208829,0.009726505928713637
8.8,1.217792,0.009726505928713637
8.825,1.217623,0.009726505928713637
8.85,1.219291,0.013371219114215016
8.875,1.208012,0.009726505928713637
8.9,1.187068,0.010282491841495878
8.925,1.181382,0.009726505928713637
8.95,1.169716,0.01338324941725344
8.975,1.205895,0.031192060606056504
9.0,1.14935,0.016612722610726438
9.025,1.165486,0.009726505928713637
9.05,1.143337,0.009726505928713637
9.075,1.115622,0.009726505928713637
9.1,1.101905,0.009726505928713637
9.125,1.085314,0.009726505928713637
9.15,1.061809,0.019679945454549097
9.175,1.077914,0.013539302797199282
9.2,1.104795,0.05292957016316646
9.225,0.9956699,0.04028208648018983
9.25,1.033292,0.009726505928713637
9.275,0.973464,0.04060635757576103
9.3,1.013626,0.022422754079250762
9.325,0.9800867,0.010775162004658778
9.35,0.9881882,0.028763877389274106
9.375,0.9396604,0.009726505928713637
9.4,0.8859649,0.049278949417252416
9.425,0.9120384,0.009726505928713637
9.45,0.9276417,0.013437781818178784
9.475,0.9292399,0.016945765734262652
9.5,0.9304406,0.014572455011651941
9.525,0.8841248,0.02719266783217067
9.55,0.9132127,0.011748913986010967
9.575,0.9011673,0.009726505928713637
9.6,0.8749675,0.00973585081585382
9.625,0.8623621,0.01639877296037595
9.65,0.8968489,0.01480499650349354
9.675,0.8750884,0.009726505928713637
9.7,0.8715054,0.009726505928713637
9.725,0.8759819,0.009726505928713637
9.75,0.8896869,0.017934457575754625
9.775,0.8463155,0.023956577855480665
9.8,0.8726046,0.009726505928713637
9.825,0.8555346,0.022732113286716205
9.85,0.916902,0.04065235128204836
9.875,0.8789734,0.009726505928713637
9.9,0.879789,0.009726505928713637
9.925,0.8693474,0.009726505928713637
9.95,0.8588988,0.017866230069933042
9.975,0.8888361,0.017122346386943543
10.0,0.8866438,0.009726505928713637
10.025,0.8641889,0.016945135431238434
10.05,0.8881423,0.009726505928713637
10.075,0.8896213,0.009726505928713637
10.1,0.8910737,0.009726505928713637
10.125,0.8879979,0.009726505928713637
10.15,0.8845666,0.009726505928713637
10.175,0.8874582,0.009726505928713637
10.2,0.8911498,0.009726505928713637
10.225,0.8970124,0.009726505928713637
10.25,0.9033424,0.009726505928713637
10.275,0.9017473,0.009726505928713637
10.3,0.8977905,0.009726505928713637
10.325,0.8996359,0.009726505928713637
10.35,0.903744,0.009726505928713637
10.375,0.9080614,0.009726505928713637
10.4,0.9124915,0.009726505928713637
10.425,0.9170045,0.009726505928713637
10.45,0.921576,0.009726505928713637
10.475,0.9273567,0.009726505928713637
10.5,0.9341292,0.009726505928713637
10.525,0.9428604,0.009726505928713637
10.55,0.9535896,0.009726505928713637
10.575,0.9678164,0.009726505928713637
10.6,0.98647,0.009726505928713637
10.625,0.9961077,0.010159953846150538
10.65,0.9912471,0.009726505928713637
10.675,0.9906282,0.009726505928713637
10.7,0.9987288,0.009726505928713637
10.725,1.008282,0.009726505928713637
10.75,1.021571,0.009726505928713637
10.775,1.03299,0.009726505928713637
10.8,1.037487,0.009726505928713637
10.825,1.042802,0.009726505928713637
10.85,1.05224,0.009726505928713637
10.875,1.060534,0.009726505928713637
10.9,1.059135,0.009726505928713637
10.925,1.058474,0.009726505928713637
10.95,1.071697,0.009726505928713637
10.975,1.085035,0.009726505928713637
11.0,1.083596,0.009726505928713637
11.025,1.082079,0.009726505928713637
11.05,1.084483,0.009726505928713637
11.075,1.087094,0.009726505928713637
11.1,1.08839,0.009726505928713637
11.125,1.089481,0.009726505928713637
11.15,1.09637,0.009726505928713637
11.175,1.104466,0.009726505928713637
11.2,1.109375,0.009726505928713637
11.225,1.113357,0.009726505928713637
11.25,1.118383,0.009726505928713637
11.275,1.123819,0.009726505928713637
11.3,1.122645,0.009726505928713637
11.325,1.118065,0.009726505928713637
11.35,1.112762,0.009726505928713637
11.375,1.106945,0.009726505928713637
11.4,1.102599,0.009726505928713637
11.425,1.09943,0.009726505928713637
11.45,1.099493,0.009726505928713637
11.475,1.10285,0.009726505928713637
11.5,1.103761,0.009726505928713637
11.525,1.101568,0.009726505928713637
11.55,1.095595,0.009726505928713637
11.575,1.083646,0.009726505928713637
11.6,1.075745,0.009726505928713637
11.625,1.076256,0.009726505928713637
11.65,1.075984,0.009726505928713637
11.675,1.073733,0.009726505928713637
11.7,1.069937,0.009726505928713637
11.725,1.060901,0.009726505928713637
11.75,1.054598,0.010393750582754269
11.775,1.062773,0.009726505928713637
11.8,1.069811,0.009726505928713637
11.825,1.067373,0.009726505928713637
11.85,1.064111,0.009726505928713637
11.875,1.048147,0.009726505928713637
11.9,1.031929,0.009726505928713637
11.925,1.018875,0.009726505928713637
11.95,1.005605,0.009726505928713637
11.975,1.008252,0.009726505928713637
12.0,1.010878,0.009726505928713637
12.025,1.006688,0.009726505928713637
12.05,1.002392,0.009726505928713637
12.075,0.9964647,0.009726505928713637
12.1,0.9904122,0.009726505928713637
12.125,0.9932764,0.009726505928713637
12.15,0.9961237,0.009726505928713637
12.175,0.9925856,0.009726505928713637
12.2,0.9889538,0.009726505928713637
12.225,0.9750946,0.009726505928713637
12.25,0.9610187,0.009726505928713637
12.275,0.9544937,0.009726505928713637
12.3,0.9478405,0.009726505928713637
12.325,0.9483591,0.009726505928713637
12.35,0.948835,0.009726505928713637
12.375,0.9350565,0.009726505928713637
12.4,0.9210668,0.009726505928713637
12.425,0.9217817,0.009726505928713637
12.45,0.9224591,0.009726505928713637
12.475,0.9184728,0.009726505928713637
12.5,0.9143939,0.009726505928713637
12.525,0.9049369,0.009726505928713637
12.55,0.8953226,0.009726505928713637
12.575,0.8997617,0.009726505928713637
12.6,0.9042085,0.009726505928713637
12.625,0.9028155,0.009726505928713637
12.65,0.9013618,0.009726505928713637
12.675,0.8965793,0.009726505928713637
12.7,0.8916982,0.009726505928713637
12.725,0.8937901,0.009726505928713637
12.75,0.8958625,0.009726505928713637
12.775,0.8943709,0.009726505928713637
12.8,0.8928187,0.009726505928713637
12.825,0.9018525,0.009726505928713637
12.85,0.9109459,0.009726505928713637
12.875,0.9085671,0.009726505928713637
12.9,0.9061177,0.009726505928713637
12.925,0.9136345,0.009726505928713637
12.95,0.9211924,0.009726505928713637
12.975,0.9188376,0.009726505928713637
13.0,0.9164132,0.011536379254082352
13.025,0.9323474,0.009726505928713637
13.05,0.9484161,0.009726505928713637
13.075,0.9516161,0.009726505928713637
13.1,0.9548073,0.009726505928713637
13.125,0.9467741,0.009726505928713637
13.15,0.9386087,0.01137036759907073
13.175,0.947102,0.009726505928713637
13.2,0.9556449,0.009726505928713637
13.225,0.970614,0.009726505928713637
13.25,0.9857022,0.012601588578085354
13.275,0.9811842,0.009726505928713637
13.3,0.9765728,0.009726505928713637
13.325,0.9868782,0.009726505928713637
13.35,0.9972517,0.009726505928713637
13.375,0.9993169,0.009726505928713637
13.4,1.00136,0.009726505928713637
13.425,1.012541,0.009726505928713637
13.45,1.023796,0.009726505928713637
13.475,1.020552,0.009726505928713637
13.5,1.017229,0.009726505928713637
13.525,1.025563,0.009726505928713637
13.55,1.033939,0.009726505928713637
13.575,1.038476,0.009726505928713637
13.6,1.043015,0.009726505928713637
13.625,1.046568,0.009726505928713637
13.65,1.050113,0.009726505928713637
13.675,1.051667,0.009726505928713637
13.7,1.053192,0.009726505928713637
13.725,1.056195,0.009726505928713637
13.75,1.059184,0.009726505928713637
13.775,1.063569,0.009726505928713637
13.8,1.067954,0.009726505928713637
13.825,1.062564,0.009726505928713637
13.85,1.057075,0.010870617715621256
13.875,1.069564,0.009726505928713637
13.9,1.082136,0.009726505928713637
13.925,1.078063,0.009726505928713637
13.95,1.073905,0.009726505928713637
13.975,1.077571,0.009726505928713637
14.0,1.08123,0.009726505928713637
14.025,1.079014,0.009726505928713637
14.05,1.076733,0.009726505928713637
14.075,1.08611,0.009726505928713637
14.1,1.095536,0.012974328671325308
14.125,1.0812,0.009726505928713637
14.15,1.066679,0.01417881351981709
14.175,1.075473,0.009726505928713637
14.2,1.084311,0.013589202797199329
14.225,1.070221,0.009726505928713637
14.25,1.055951,0.009726505928713637
14.275,1.056795,0.009726505928713637
14.3,1.057606,0.009726505928713637
14.325,1.061497,0.009726505928713637
14.35,1.065384,0.009726505928713637
14.375,1.05879,0.009726505928713637
14.4,1.052092,0.009726505928713637
14.425,1.046115,0.009726505928713637
14.45,1.040042,0.013380344988348725
14.475,1.055179,0.009726505928713637
14.5,1.070419,0.01777220979020644
14.525,1.056603,0.009726505928713637
14.55,1.042617,0.009726505928713637
14.575,1.040081,0.009726505928713637
14.6,1.037483,0.009726505928713637
14.625,1.034926,0.009726505928713637
14.65,1.032308,0.009726505928713637
14.675,1.016497,0.009726505928713637
14.7,1.000503,0.00988932564102929
14.725,1.000776,0.009726505928713637
14.75,1.001014,0.009726505928713637
14.775,0.9970224,0.009726505928713637
14.8,0.9929577,0.009726505928713637
14.825,0.9881497,0.009726505928713637
14.85,0.9832627,0.009726505928713637
14.875,0.9745477,0.009726505928713637
14.9,0.9657197,0.009726505928713637
14.925,0.9739509,0.009726505928713637
14.95,0.9822208,0.018327229603726347
14.975,0.9587669,0.009726505928713637
15.0,0.9350723,0.017160479254082373
15.025,0.9426518,0.009726505928713637
15.05,0.9502646,0.014153307925404923
15.075,0.9332052,0.009726505928713637
15.1,0.9159633,0.018523377622380766
15.125,0.9316815,0.009726505928713637
15.15,0.9475033,0.014733696969693955
15.175,0.9377851,0.009726505928713637
15.2,0.9279512,0.009726505928713637
15.225,0.9225901,0.009726505928713637
15.25,0.9171517,0.009726505928713637
15.275,0.915589,0.009726505928713637
15.3,0.9139811,0.009726505928713637
15.325,0.9253084,0.009726505928713637
15.35,0.9367005,0.011911687412584304
15.375,0.9291363,0.009726505928713637
15.4,0.9214776,0.009726505928713637
15.425,0.9276476,0.009726505928713637
15.45,0.9338381,0.009726505928713637
15.475,0.933334,0.009726505928713637
15.5,0.9327943,0.009726505928713637
15.525,0.9367027,0.009726505928713637
15.55,0.9406129,0.009726505928713637
15.575,0.9415658,0.009726505928713637
15.6,0.9424959,0.009726505928713637
15.625,0.9442859,0.009726505928713637
15.65,0.9460602,0.009726505928713637
15.675,0.9503248,0.009726505928713637
15.7,0.9545932,0.009726505928713637
15.725,0.9643727,0.009726505928713637
15.75,0.9741994,0.009726505928713637
15.775,0.9774424,0.009726505928713637
15.8,0.9806799,0.009726505928713637
15.825,0.975293,0.009726505928713637
15.85,0.9698331,0.009726505928713637
15.875,0.963868,0.009726505928713637
15.9,0.9578263,0.009726505928713637
15.925,0.9690897,0.009726505928713637
15.95,0.9804108,0.009726505928713637
15.975,0.9782575,0.009726505928713637
16.0,0.976058,0.011423433799537142
16.025,0.9940096,0.009726505928713637
16.05,1.012069,0.012622835897432627
16.075,1.007835,0.009726505928713637
16.1,1.003539,0.009726505928713637
16.125,1.009136,0.009726505928713637
16.15,1.014746,0.009726505928713637
16.175,1.015927,0.009726505928713637
16.2,1.017087,0.009726505928713637
16.225,1.021703,0.009726505928713637
16.25,1.026325,0.009726505928713637
16.275,1.043886,0.009726505928713637
16.3,1.061548,0.009726505928713637
16.325,1.063896,0.009726505928713637
16.35,1.066233,0.009726505928713637
16.375,1.054812,0.009726505928713637
16.4,1.043279,0.010308079254082836
16.425,1.046642,0.009726505928713637
16.45,1.049999,0.009726505928713637
16.475,1.052994,0.009726505928713637
16.5,1.055982,0.009726505928713637
16.525,1.056282,0.009726505928713637
16.55,1.056557,0.009726505928713637
16.575,1.055537,0.009726505928713637
16.6,1.054483,0.009726505928713637
16.625,1.051557,0.009726505928713637
16.65,1.048582,0.009726505928713637
16.675,1.045472,0.009726505928713637
16.7,1.042313,0.012669170163173593
16.725,1.059138,0.009726505928713637
16.75,1.076052,0.01583087878787537
16.775,1.065966,0.009726505928713637
16.8,1.055785,0.009726505928713637
16.825,1.048044,0.009726505928713637
16.85,1.040225,0.009726505928713637
16.875,1.035255,0.009726505928713637
16.9,1.030226,0.01566353379953722
16.925,1.051849,0.009726505928713637
16.95,1.073592,0.02841274825174489
16.975,1.04877,0.009726505928713637
17.0,1.023758,0.01307462004662363
17.025,1.021515,0.009726505928713637
17.05,1.019234,0.009726505928713637
17.075,1.018003,0.009726505928713637
17.1,1.01674,0.009726505928713637
17.125,1.023589,0.009726505928713637
17.15,1.030457,0.014036496503493145
17.175,1.015833,0.009726505928713637
17.2,1.001091,0.011786606060609328
17.225,1.004004,0.009727517948721509
17.25,1.006914,0.009726505928713637
17.275,1.017699,0.009726505928713637
17.3,1.028531,0.01800780396270074
17.325,1.010931,0.009726505928713637
17.35,0.9931993,0.013558808624711927
17.375,0.9977553,0.009726505928713637
17.4,1.002319,0.009726505928713637
17.425,0.9993238,0.009726505928713637
17.45,0.9962881,0.009726505928713637
17.475,0.9996524,0.009726505928713637
17.5,1.003016,0.009726505928713637
17.525,0.9955108,0.009726505928713637
17.55,0.9879391,0.009726505928713637
17.575,0.9813198,0.009726505928713637
17.6,0.9746413,0.009726505928713637
17.625,0.974772,0.009726505928713637
17.65,0.9748833,0.009726505928713637
17.675,0.9678144,0.009726505928713637
17.7,0.9606825,0.009726505928713637
17.725,0.9570259,0.009726505928713637
17.75,0.9533292,0.009726505928713637
17.775,0.9603602,0.009726505928713637
17.8,0.9674141,0.009726505928713637
17.825,0.9693692,0.009726505928713637
17.85,0.9713169,0.009726505928713637
17.875,0.9644247,0.009726505928713637
17.9,0.9574744,0.009726505928713637
17.925,0.9475228,0.009726505928713637
17.95,0.9374951,0.015226412820515955
17.975,0.9527146,0.009726505928713637
18.0,0.9680041,0.013077660606057417
18.025,0.9623754,0.009726505928713637
18.05,0.9566973,0.009726505928713637
18.075,0.9564315,0.009726505928713637
18.1,0.9561468,0.009726505928713637
18.125,0.9536958,0.009726505928713637
18.15,0.9512142,0.009726505928713637
18.175,0.9534665,0.009726505928713637
18.2,0.9557147,0.009726505928713637
18.225,0.949981,0.009726505928713637
18.25,0.9441996,0.009726505928713637
18.275,0.9548569,0.009726505928713637
18.3,0.9655566,0.009726505928713637
18.325,0.9670291,0.009726505928713637
18.35,0.9684942,0.009726505928713637
18.375,0.9699252,0.009726505928713637
18.4,0.9713481,0.009726505928713637
18.425,0.9691744,0.009726505928713637
18.45,0.9669722,0.009726505928713637
18.475,0.9734392,0.009726505928713637
18.5,0.9799248,0.009726505928713637
18.525,0.9868659,0.009726505928713637
18.55,0.9938275,0.009726505928713637
18.575,0.9909812,0.009726505928713637
18.6,0.9881043,0.009726505928713637
18.625,0.9934701,0.009726505928713637
18.65,0.9988475,0.009726505928713637
18.675,0.9992414,0.009726505928713637
18.7,0.9996214,0.009726505928713637
18.725,1.005125,0.009726505928713637
18.75,1.010641,0.009726505928713637
18.775,1.001246,0.009726505928713637
18.8,0.9917883,0.009726505928713637
18.825,0.9997742,0.009726505928713637
18.85,1.007785,0.009726505928713637
18.875,1.008079,0.009726505928713637
18.9,1.00836,0.009726505928713637
18.925,1.023363,0.009726505928713637
18.95,1.038426,0.009726505928713637
18.975,1.045979,0.009726505928713637
19.0,1.053554,0.014784920745917418
19.025,1.037769,0.009726505928713637
19.05,1.021891,0.009726505928713637
19.075,1.017705,0.009726505928713637
19.1,1.013484,0.0128938601398636
19.125,1.028995,0.009726505928713637
19.15,1.044565,0.009726505928713637
19.175,1.047351,0.009726505928713637
19.2,1.050136,0.009726505928713637
19.225,1.039319,0.009726505928713637
19.25,1.028437,0.014737431235434695
19.275,1.039106,0.009726505928713637
19.3,1.049812,0.013012993006989548
19.325,1.040028,0.009726505928713637
19.35,1.030185,0.009726505928713637
19.375,1.026855,0.009726505928713637
19.4,1.023496,0.009726505928713637
19.425,1.033566,0.009726505928713637
19.45,1.043669,0.009726505928713637
19.475,1.043355,0.009726505928713637
19.5,1.043024,0.009726505928713637
19.525,1.046129,0.009726505928713637
19.55,1.049233,0.009726505928713637
19.575,1.036267,0.009726505928713637
19.6,1.023229,0.009726505928713637
19.625,1.019697,0.009726505928713637
19.65,1.016135,0.009726505928713637
19.675,1.019888,0.009726505928713637
19.7,1.023643,0.009726505928713637
19.725,1.024649,0.009726505928713637
19.75,1.025645,0.009726505928713637
19.775,1.016278,0.009726505928713637
19.8,1.006857,0.009726505928713637
19.825,1.010915,0.009726505928713637
19.85,1.014977,0.009726505928713637
19.875,1.008071,0.009726505928713637
19.9,1.001122,0.009726505928713637
19.925,1.007584,0.009726505928713637
19.95,1.014061,0.009726505928713637
19.975,1.004715,0.009726505928713637
20.0,0.9953157,0.009726505928713637
20.025,0.9996181,0.009726505928713637
20.05,1.003925,0.009726505928713637
20.075,1.003497,0.009726505928713637
20.1,1.003055,0.009726505928713637
20.125,0.9937859,0.009726505928713637
20.15,0.9844663,0.009726505928713637
20.175,0.9803699,0.009726505928713637
20.2,0.9762443,0.009726505928713637
20.225,0.9791819,0.009726505928713637
20.25,0.9821195,0.009726505928713637
20.275,0.9785844,0.009726505928713637
20.3,0.9750226,0.009726505928713637
20.325,0.9791123,0.009726505928713637
20.35,0.9832076,0.009726505928713637
20.375,0.9784516,0.009726505928713637
20.4,0.9736646,0.009726505928713637
20.425,0.975569,0.009726505928713637
20.45,0.9774697,0.009726505928713637
20.475,0.9748653,0.009726505928713637
20.5,0.9722396,0.009726505928713637
20.525,0.9749431,0.009726505928713637
20.55,0.9776461,0.009726505928713637
20.575,0.9741772,0.009726505928713637
20.6,0.9706838,0.009726505928713637
20.625,0.9719045,0.009726505928713637
20.65,0.9731191,0.009726505928713637
20.675,0.9746282,0.009726505928713637
20.7,0.9761329,0.009726505928713637
20.725,0.9731461,0.009726505928713637
20.75,0.9701374,0.009726505928713637
20.775,0.967427,0.009726505928713637
20.8,0.964696,0.009726505928713637
20.825,0.9772844,0.009726505928713637
20.85,0.9899093,0.013650000699297338
20.875,0.9814284,0.009726505928713637
20.9,0.9729056,0.009726505928713637
20.925,0.9715901,0.009726505928713637
20.95,0.9702599,0.009726505928713637
20.975,0.9794484,0.009726505928713637
21.0,0.9886616,0.011662940792537602
21.025,0.9787779,0.009726505928713637
21.05,0.9688479,0.01828389813520137
21.075,0.9886227,0.009726505928713637
21.1,1.008459,0.017865256643353367
21.125,0.9971702,0.009726505928713637
21.15,0.9858302,0.009726505928713637
21.175,0.9836022,0.009726505928713637
21.2,0.981356,0.009726505928713637
21.225,0.980063,0.009726505928713637
21.25,0.9787557,0.009726505928713637
21.275,0.9862634,0.009726505928713637
21.3,0.9937891,0.009726505928713637
21.325,1.006873,0.009726505928713637
21.35,1.019994,0.012811580885777607
21.375,1.011491,0.009726505928713637
21.4,1.002949,0.009726505928713637
21.425,1.004067,0.009726505928713637
21.45,1.00518,0.009726505928713637
21.475,1.004539,0.009726505928713637
21.5,1.003888,0.009726505928713637
21.525,1.003235,0.009726505928713637
21.55,1.002572,0.009726505928713637
21.575,0.997245,0.009726505928713637
21.6,0.9918925,0.011786263403266717
21.625,1.006379,0.009726505928713637
21.65,1.020908,0.009726505928713637
21.675,1.021099,0.009726505928713637
21.7,1.021285,0.009726505928713637
21.725,1.021073,0.009726505928713637
21.75,1.020855,0.009726505928713637
21.775,1.021951,0.009726505928713637
21.8,1.023044,0.009726505928713637
21.825,1.022288,0.009726505928713637
21.85,1.021522,0.009726505928713637
21.875,1.021855,0.009726505928713637
21.9,1.022183,0.009726505928713637
21.925,1.020983,0.009726505928713637
21.95,1.019771,0.009726505928713637
21.975,1.017063,0.009726505928713637
22.0,1.014341,0.009726505928713637
22.025,1.019647,0.009726505928713637
22.05,1.024966,0.009726505928713637
22.075,1.020889,0.009726505928713637
22.1,1.016795,0.009726505928713637
22.125,1.02629,0.009726505928713637
22.15,1.03581,0.009726505928713637
22.175,1.029349,0.009726505928713637
22.2,1.022861,0.009726505928713637
22.225,1.015279,0.009726505928713637
22.25,1.007668,0.009726505928713637
22.275,1.008393,0.009726505928713637
22.3,1.009117,0.009726505928713637
22.325,1.009742,0.009726505928713637
22.35,1.010365,0.009726505928713637
22.375,1.01705,0.009726505928713637
22.4,1.023753,0.009726505928713637
22.425,1.017594,0.009726505928713637
22.45,1.01141,0.009726505928713637
22.475,1.013747,0.009726505928713637
22.5,1.016088,0.009726505928713637
22.525,1.011307,0.009726505928713637
22.55,1.006508,0.009726505928713637
22.575,1.007902,0.009726505928713637
22.6,1.009296,0.009726505928713637
22.625,1.000387,0.009726505928713637
22.65,0.9914451,0.009726505928713637
22.675,0.9938817,0.009726505928713637
22.7,0.9963237,0.009726505928713637
22.725,0.9882211,0.009726505928713637
22.75,0.9800897,0.011697119347322649
22.775,0.9902707,0.009726505928713637
22.8,1.000481,0.009726505928713637
22.825,1.011161,0.010383602564099093
22.85,1.02187,0.018474611421908094
22.875,1.001446,0.009726505928713637
22.9,0.9809554,0.020365387645690847
22.925,0.9935099,0.009726505928713637
22.95,1.006102,0.012833374592071345
22.975,0.995945,0.009726505928713637
23.0,0.9857543,0.009837615384618692
23.025,0.9939948,0.009726505928713637
23.05,1.002259,0.009726505928713637
23.075,0.9961883,0.009726505928713637
23.1,0.9900966,0.009726505928713637
23.125,0.9885885,0.009726505928713637
23.15,0.9870726,0.009726505928713637
23.175,0.9751742,0.009726505928713637
23.2,0.9632352,0.00980837762238096
23.225,0.9671857,0.009726505928713637
23.25,0.971146,0.009726505928713637
23.275,0.9848268,0.009726505928713637
23.3,0.9985476,0.017529628671325348
23.325,0.9842457,0.009726505928713637
23.35,0.9699004,0.013068954545457867
23.375,0.9757925,0.009726505928713637
23.4,0.9817009,0.009726505928713637
23.425,0.9788198,0.009726505928713637
23.45,0.9759274,0.009726505928713637
23.475,0.9725851,0.009726505928713637
23.5,0.9692321,0.01147131608391938
23.525,0.9845569,0.009726505928713637
23.55,0.9999253,0.010849368298364914
23.575,0.9972644,0.009726505928713637
23.6,0.9945934,0.009726505928713637
23.625,0.9966522,0.009726505928713637
23.65,0.9987153,0.009726505928713637
23.675,0.9954844,0.009726505928713637
23.7,0.9922422,0.009726505928713637
23.725,0.9858075,0.009726505928713637
23.75,0.979352,0.009726505928713637
23.775,0.9861412,0.009726505928713637
23.8,0.9929485,0.009726505928713637
23.825,0.990087,0.009726505928713637
23.85,0.987215,0.009726505928713637
23.875,0.983108,0.009726505928713637
23.9,0.9789863,0.009726505928713637
23.925,0.9901344,0.009726505928713637
23.95,1.001314,0.013581317249413916
23.975,0.9910995,0.009726505928713637
24.0,0.9808518,0.012425987645690806
24.025,0.9921641,0.009726505928713637
24.05,1.003507,0.009726505928713637
24.075,1.00604,0.009726505928713637
24.1,1.008579,0.009726505928713637
24.125,1.012064,0.009726505928713637
24.15,1.015558,0.009726505928713637
24.175,1.020993,0.009726505928713637
24.2,1.026442,0.009726505928713637
24.225,1.019912,0.009726505928713637
24.25,1.013359,0.009726505928713637
24.275,1.019998,0.009726505928713637
24.3,1.026653,0.011567806526803226
24.325,1.015167,0.009726505928713637
24.35,1.003647,0.009726505928713637
24.375,1.002045,0.009726505928713637
24.4,1.000435,0.009726505928713637
24.425,1.013336,0.009726505928713637
24.45,1.026273,0.012118988344984816
24.475,1.021227,0.009726505928713637
24.5,1.016164,0.009726505928713637
24.525,1.009234,0.009726505928713637
24.55,1.00228,0.009726505928713637
24.575,1.008846,0.009726505928713637
24.6,1.015426,0.009726505928713637
24.625,1.014503,0.009726505928713637
24.65,1.013573,0.009726505928713637
24.675,1.016472,0.009726505928713637
24.7,1.019377,0.009726505928713637
24.725,1.018161,0.009726505928713637
24.75,1.01694,0.009726505928713637
24.775,1.015636,0.009726505928713637
24.8,1.014325,0.009726505928713637
24.825,1.005118,0.009726505928713637
24.85,0.9958819,0.009726505928713637
24.875,0.9918466,0.009726505928713637
24.9,0.9877983,0.009726505928713637
24.925,0.9976525,0.009726505928713637
24.95,1.007532,0.009726505928713637
24.975,1.014321,0.009726505928713637
25.0,1.021125,0.010705170862467694
25.025,1.008514,0.009726505928713637
25.05,0.9958616,0.013411341258744658
25.075,1.004874,0.009726505928713637
25.1,1.013907,0.013457628438225067
25.125,0.9995098,0.009726505928713637
25.15,0.9850678,0.0134159228438262
25.175,0.9950515,0.009726505928713637
25.2,1.005059,0.009726505928713637
25.225,0.9992859,0.009726505928713637
25.25,0.9934925,0.009726505928713637
25.275,0.9987233,0.009726505928713637
25.3,1.003964,0.009726505928713637
25.325,1.006918,0.009726505928713637
25.35,1.009875,0.009726505928713637
25.375,1.000559,0.009726505928713637
25.4,0.9912132,0.009726505928713637
25.425,0.9973749,0.009726505928713637
25.45,1.003549,0.009726505928713637
25.475,0.9973545,0.009726505928713637
25.5,0.9911382,0.012689914219117693
25.525,1.007619,0.009726505928713637
25.55,1.024141,0.02296617855477523
25.575,1.001081,0.009726505928713637
25.6,0.9779536,0.018531602797206226
25.625,0.9869961,0.009726505928713637
25.65,0.9960598,0.009726505928713637
25.675,0.9901415,0.009726505928713637
25.7,0.984203,0.009726505928713637
25.725,0.9920228,0.009726505928713637
25.75,0.9998595,0.009726505928713637
25.775,1.000952,0.009726505928713637
25.8,1.002042,0.009726505928713637
25.825,0.9911994,0.009726505928713637
25.85,0.9803232,0.009726505928713637
25.875,0.9797786,0.009726505928713637
25.9,0.9792287,0.009726505928713637
25.925,0.9880676,0.009726505928713637
25.95,0.9969273,0.009726505928713637
25.975,0.9961131,0.009726505928713637
26.0,0.9952912,0.009726505928713637
26.025,0.9885163,0.009726505928713637
26.05,0.9817188,0.009726505928713637
26.075,0.9878106,0.009726505928713637
26.1,0.9939144,0.009726505928713637
26.125,0.9924932,0.009726505928713637
26.15,0.9910639,0.009726505928713637
26.175,0.9846809,0.009726505928713637
26.2,0.9782763,0.009726505928713637
26.225,0.9821419,0.009726505928713637
26.25,0.9860141,0.009726505928713637
26.275,0.9842089,0.009726505928713637
26.3,0.9823952,0.009726505928713637
26.325,0.9874031,0.009726505928713637
26.35,0.9924204,0.009726505928713637
26.375,0.990402,0.009726505928713637
26.4,0.9883741,0.009726505928713637
26.425,0.986208,0.009726505928713637
26.45,0.9840326,0.009726505928713637
26.475,0.992718,0.009726505928713637
26.5,1.001424,0.009726505928713637
26.525,0.9998754,0.009726505928713637
26.55,0.9983183,0.009726505928713637
26.575,0.995666,0.009726505928713637
26.6,0.993003,0.009726505928713637
26.625,1.00129,0.009726505928713637
26.65,1.009596,0.010162821445218073
26.675,1.000823,0.009726505928713637
26.7,0.9920207,0.01425131934732271
26.725,1.006269,0.009726505928713637
26.75,1.020552,0.012641779953376453
26.775,1.013911,0.009726505928713637
26.8,1.007247,0.009726505928713637
26.825,1.002839,0.009726505928713637
26.85,0.9984139,0.009726505928713637
26.875,1.007417,0.009726505928713637
26.9,1.016441,0.009726505928713637
26.925,1.011076,0.009726505928713637
26.95,1.005693,0.009726505928713637
26.975,1.012251,0.009726505928713637
27.0,1.018823,0.009726505928713637
27.025,1.021517,0.009726505928713637
27.05,1.024215,0.009726505928713637
27.075,1.023657,0.009726505928713637
27.1,1.023095,0.009726505928713637
27.125,1.013954,0.009726505928713637
27.15,1.004784,0.01013363170163517
27.175,1.011422,0.009726505928713637
27.2,1.018076,0.009726505928713637
27.225,1.011539,0.009726505928713637
27.25,1.004982,0.009726505928713637
27.275,1.00098,0.009726505928713637
27.3,0.9969636,0.009726505928713637
27.325,1.004259,0.009726505928713637
27.35,1.011571,0.009726505928713637
27.375,1.00956,0.009726505928713637
27.4,1.007539,0.009726505928713637
27.425,1.010826,0.009726505928713637
27.45,1.014119,0.009726505928713637
27.475,1.018362,0.009726505928713637
27.5,1.022614,0.009726505928713637
27.525,1.016879,0.009726505928713637
27.55,1.011124,0.009726505928713637
27.575,1.003769,0.009726505928713637
27.6,0.9963906,0.009726505928713637
27.625,1.002766,0.009726505928713637
27.65,1.009156,0.009726505928713637
27.675,1.007825,0.009726505928713637
27.7,1.006487,0.009726505928713637
27.725,1.006353,0.009726505928713637
27.75,1.006215,0.009726505928713637
27.775,1.000403,0.009726505928713637
27.8,0.9945714,0.009726505928713637
27.825,0.9955559,0.009726505928713637
27.85,0.9965416,0.009726505928713637
27.875,0.9950032,0.009726505928713637
27.9,0.993458,0.009726505928713637
27.925,0.9974101,0.009726505928713637
27.95,1.001371,0.009726505928713637
27.975,0.9986108,0.009726505928713637
28.0,0.9958415,0.009726505928713637
28.025,1.004006,0.009726505928713637
28.05,1.012191,0.017030498601395383
28.075,0.9917299,0.009726505928713637
28.1,0.9712096,0.0247954972028005
28.125,0.991852,0.009726505928713637
28.15,1.012552,0.013617448951045441
28.175,1.009122,0.009726505928713637
28.2,1.005681,0.009726505928713637
28.225,1.00336,0.009726505928713637
28.25,1.00103,0.009726505928713637
28.275,0.9950056,0.009726505928713637
28.3,0.9889625,0.009726505928713637
28.325,0.9837288,0.009726505928713637
28.35,0.9784801,0.009928466433569816
28.375,0.9888639,0.009726505928713637
28.4,0.9992751,0.009726505928713637
28.425,0.9959596,0.009726505928713637
28.45,0.9926349,0.009726505928713637
28.475,0.982448,0.009726505928713637
28.5,0.9722308,0.010992525641029038
28.525,0.9792075,0.009726505928713637
28.55,0.9862018,0.009726505928713637
28.575,0.9836783,0.009726505928713637
28.6,0.9811469,0.009726505928713637
28.625,0.9825915,0.009726505928713637
28.65,0.9840383,0.009726505928713637
28.675,0.9836469,0.009726505928713637
28.7,0.9832518,0.009726505928713637
28.725,0.9934623,0.009726505928713637
28.75,1.0037,0.01016361818181477
28.775,0.9959562,0.009726505928713637
28.8,0.9881894,0.009726505928713637
28.825,0.9938077,0.009726505928713637
28.85,0.9994403,0.009726505928713637
28.875,0.9924668,0.009726505928713637
28.9,0.9854721,0.009726505928713637
28.925,0.9830326,0.009726505928713637
28.95,0.9805849,0.009888024009327312
28.975,0.9945581,0.009726505928713637
29.0,1.00857,0.013735210023306688
29.025,1.000694,0.009726505928713637
29.05,0.9927947,0.009726505928713637
29.075,0.9977169,0.009726505928713637
29.1,1.002652,0.009726505928713637
29.125,1.001674,0.009726505928713637
29.15,1.000692,0.009726505928713637
29.175,0.992092,0.009726505928713637
29.2,0.983466,0.009726505928713637
29.225,0.9824846,0.009726505928713637
29.25,0.9814995,0.009726505928713637
29.275,0.9873825,0.009726505928713637
29.3,0.9932826,0.009726505928713637
29.325,1.000368,0.009726505928713637
29.35,1.007473,0.009726505928713637
29.375,1.007324,0.009726505928713637
29.4,1.007173,0.009726505928713637
29.425,1.004146,0.009726505928713637
29.45,1.001109,0.009726505928713637
29.475,1.005567,0.009726505928713637
29.5,1.010037,0.009726505928713637
29.525,1.010266,0.009726505928713637
29.55,1.010495,0.009726505928713637
29.575,1.013626,0.009726505928713637
29.6,1.016765,0.009726505928713637
29.625,1.018379,0.009726505928713637
29.65,1.019996,0.009726505928713637
29.675,1.013904,0.009726505928713637
29.7,1.007795,0.009726505928713637
29.725,1.00161,0.009726505928713637
29.75,0.9954067,0.009726505928713637
29.775,0.9998817,0.009726505928713637
29.8,1.004369,0.009726505928713637
29.825,1.011186,0.009726505928713637
29.85,1.018022,0.009726505928713637
29.875,1.019446,0.009726505928713637
29.9,1.020876,0.009726505928713637
29.925,1.019685,0.009726505928713637
29.95,1.018491,0.009726505928713637
29.975,1.01598,0.009726505928713637
30.0,1.013464,0.009726505928713637
30.025,1.021898,0.009726505928713637
30.05,1.030356,0.013164606060602546
30.075,1.017222,0.009726505928713637
30.1,1.004052,0.009726505928713637
30.125,1.003955,0.009726505928713637
30.15,1.003857,0.009726505928713637
30.175,1.005302,0.009726505928713637
30.2,1.006748,0.009726505928713637
30.225,1.007788,0.009726505928713637
30.25,1.00883,0.009726505928713637
30.275,1.001373,0.009726505928713637
30.3,0.9938937,0.009726505928713637
30.325,0.9998755,0.009726505928713637
30.35,1.005873,0.009726505928713637
30.375,1.000805,0.009726505928713637
30.4,0.9957215,0.009726505928713637
30.425,0.9947697,0.009726505928713637
30.45,0.9938142,0.009726505928713637
30.475,0.9997115,0.009726505928713637
30.5,1.005624,0.009726505928713637
30.525,1.006795,0.009726505928713637
30.55,1.007969,0.009726505928713637
30.575,1.008288,0.009726505928713637
30.6,1.008607,0.009726505928713637
30.625,1.004566,0.009726505928713637
30.65,1.000513,0.009726505928713637
30.675,1.003131,0.009726505928713637
30.7,1.005757,0.009726505928713637
30.725,1.011773,0.009726505928713637
30.75,1.017806,0.009726505928713637
30.775,1.0097,0.009726505928713637
30.8,1.00157,0.009726505928713637
30.825,0.9940427,0.009726505928713637
30.85,0.9864936,0.009726505928713637
30.875,0.9886461,0.009726505928713637
30.9,0.990804,0.009726505928713637
30.925,0.9802556,0.009726505928713637
30.95,0.9696754,0.017118583216786498
30.975,0.9888591,0.009726505928713637
31.0,1.008099,0.02091397925407601
31.025,0.9926561,0.009726505928713637
31.05,0.9771672,0.011894567832171132
31.075,0.9822539,0.009726505928713637
31.1,0.9873555,0.009726505928713637
31.125,0.9877902,0.009726505928713637
31.15,0.9882253,0.009726505928713637
31.175,0.9873238,0.009726505928713637
31.2,0.9864194,0.009726505928713637
31.225,0.9878723,0.009726505928713637
31.25,0.9893286,0.009726505928713637
31.275,0.9968677,0.009726505928713637
31.3,1.004428,0.012181956410253214
31.325,0.9928955,0.009726505928713637
31.35,0.9813275,0.009726505928713637
31.375,0.9767603,0.009726505928713637
31.4,0.9721784,0.009726505928713637
31.425,0.9823188,0.009726505928713637
31.45,0.992489,0.009726505928713637
31.475,0.9932642,0.009726505928713637
31.5,0.9940416,0.009726505928713637
31.525,0.9893293,0.009726505928713637
31.55,0.9846021,0.009726505928713637
31.575,0.9893711,0.009726505928713637
31.6,0.9941537,0.009726505928713637
31.625,0.9997721,0.009726505928713637
31.65,1.005407,0.009726505928713637
31.675,1.000866,0.009726505928713637
31.7,0.9963104,0.009726505928713637
31.725,1.003274,0.009726505928713637
31.75,1.010258,0.011391269230765833
31.775,0.9972132,0.009726505928713637
31.8,0.9841283,0.01124849324009658
31.825,0.9916669,0.009726505928713637
31.85,0.9992262,0.009726505928713637
31.875,0.9947689,0.009726505928713637
31.9,0.9902958,0.009726505928713637
31.925,1.00148,0.009726505928713637
31.95,1.012697,0.015330089277385994
31.975,0.9981849,0.009726505928713637
32.0,0.9836283,0.014161838228441526
32.025,0.9922673,0.009726505928713637
32.05,1.000929,0.009726505928713637
32.075,1.004534,0.009726505928713637
32.1,1.00815,0.009726505928713637
32.125,1.001891,0.009726505928713637
32.15,0.9956133,0.017244347785551284
32.175,1.015685,0.009726505928713637
32.2,1.035819,0.02214690466200131
32.225,1.021137,0.009726505928713637
32.25,1.006408,0.009726505928713637
32.275,1.002162,0.013017129137532502
32.3,0.9979038,0.01600713986014335
32.325,1.017352,0.009726505928713637
32.35,1.036855,0.020147251282047973
32.375,1.024182,0.009726505928713637
32.4,1.011469,0.009726505928713637
32.425,1.009026,0.009726505928713637
32.45,1.006574,0.009726505928713637
32.475,1.002673,0.009726505928713637
32.5,0.9987563,0.009726505928713637
32.525,1.000226,0.009726505928713637
32.55,1.001698,0.009726505928713637
32.575,1.001639,0.009726505928713637
32.6,1.001578,0.009726505928713637
32.625,0.9952501,0.009726505928713637
32.65,0.9889017,0.009726505928713637
32.675,0.9963046,0.009726505928713637
32.7,1.003729,0.009726505928713637
32.725,1.010445,0.009726505928713637
32.75,1.017178,0.009726505928713637
32.775,1.011664,0.009726505928713637
32.8,1.006131,0.009726505928713637
32.825,1.005843,0.009726505928713637
32.85,1.005552,0.009726505928713637
32.875,1.007257,0.009726505928713637
32.9,1.008966,0.009726505928713637
32.925,1.00833,0.009726505928713637
32.95,1.00769,0.009726505928713637
32.975,1.002551,0.009726505928713637
33.0,0.9973921,0.009726505928713637
33.025,0.9969997,0.009726505928713637
33.05,0.9966048,0.009726505928713637
33.075,0.9983912,0.009726505928713637
33.1,1.000182,0.009726505928713637
33.125,0.9950916,0.009726505928713637
33.15,0.9899846,0.012705608391611833
33.175,1.004391,0.009726505928713637
33.2,1.018841,0.012188809557106328
33.225,1.014044,0.009726505928713637
33.25,1.009229,0.009726505928713637
33.275,0.9980922,0.009726505928713637
33.3,0.9869211,0.01589954825175166
33.325,0.9988686,0.009726505928713637
33.35,1.01085,0.009726505928713637
33.375,1.012159,0.009726505928713637
33.4,1.013469,0.009726505928713637
33.425,1.001159,0.009726505928713637
33.45,0.9888073,0.009819710256413705
33.475,0.9909667,0.009726505928713637
33.5,0.9931295,0.009726505928713637
33.525,0.9958034,0.009726505928713637
33.55,0.9984832,0.009726505928713637
33.575,0.9961609,0.009726505928713637
33.6,0.9938298,0.009726505928713637
33.625,0.983599,0.009726505928713637
33.65,0.9733348,0.009726505928713637
33.675,0.9761418,0.009726505928713637
33.7,0.9789568,0.009726505928713637
33.725,0.9941995,0.009726505928713637
33.75,1.009491,0.009726505928713637
33.775,1.009373,0.009726505928713637
33.8,1.009252,0.009726505928713637
33.825,1.013871,0.009726505928713637
33.85,1.018501,0.009726505928713637
33.875,1.010171,0.009726505928713637
33.9,1.001813,0.009726505928713637
33.925,1.002112,0.009726505928713637
33.95,1.002409,0.009726505928713637
33.975,0.989931,0.009726505928713637
34.0,0.9774092,0.01114130186480522
34.025,0.9837265,0.009726505928713637
34.05,0.9900601,0.009726505928713637
34.075,0.999442,0.009726505928713637
34.1,1.00885,0.012614177622374267
34.125,0.9990844,0.009726505928713637
34.15,0.9892858,0.009726505928713637
34.175,0.9889573,0.009726505928713637
34.2,0.9886247,0.009726505928713637
34.225,0.9919012,0.009726505928713637
34.25,0.9951853,0.009726505928713637
34.275,0.9896632,0.009726505928713637
34.3,0.984123,0.009726505928713637
34.325,0.9886752,0.009726505928713637
34.35,0.9932388,0.009726505928713637
34.375,0.9951746,0.009726505928713637
34.4,0.9971141,0.009726505928713637
34.425,0.9979082,0.009726505928713637
34.45,0.9987026,0.009726505928713637
34.475,1.005365,0.009726505928713637
34.5,1.012046,0.009726505928713637
34.525,1.012737,0.009726505928713637
34.55,1.013427,0.009726505928713637
34.575,1.004551,0.009726505928713637
34.6,0.995647,0.009726505928713637
34.625,0.9882957,0.009726505928713637
34.65,0.9809188,0.009726505928713637
34.675,0.9876869,0.009726505928713637
34.7,0.9944751,0.009726505928713637
34.725,0.99392,0.009726505928713637
34.75,0.9933598,0.009726505928713637
34.775,0.9979107,0.009726505928713637
34.8,1.002473,0.009726505928713637
34.825,1.006981,0.009726505928713637
34.85,1.0115,0.009726505928713637
34.875,1.011505,0.009726505928713637
34.9,1.011508,0.009726505928713637
34.925,1.000456,0.009726505928713637
34.95,0.989364,0.009726505928713637
34.975,0.9882931,0.009726505928713637
35.0,0.9872155,0.009726505928713637
35.025,0.9915977,0.009726505928713637
35.05,0.9959908,0.009726505928713637
35.075,1.008305,0.009726505928713637
35.1,1.020655,0.013918626573423243
35.125,1.009081,0.009726505928713637
35.15,0.9974677,0.015429049883453394
35.175,1.008951,0.009726505928713637
35.2,1.02047,0.011477515384612058
35.225,1.013117,0.009726505928713637
35.25,1.005737,0.009726505928713637
35.275,0.9959676,0.009726505928713637
35.3,0.9861658,0.015743317948721414
35.325,1.000651,0.009726505928713637
35.35,1.015177,0.010166805128201784
35.375,1.013944,0.009726505928713637
35.4,1.012705,0.009726505928713637
35.425,1.007661,0.009726505928713637
35.45,1.002596,0.009726505928713637
35.475,1.003108,0.009726505928713637
35.5,1.003618,0.009879122610719215
35.525,0.9904436,0.009726505928713637
35.55,0.9772263,0.013180190442893758
35.575,0.9856185,0.009726505928713637
35.6,0.9940347,0.009726505928713637
35.625,1.009363,0.009726505928713637
35.65,1.024739,0.017029165734262497
35.675,1.012082,0.009726505928713637
35.7,0.9993805,0.0099116615384649
35.725,1.00336,0.009726505928713637
35.75,1.00735,0.009726505928713637
35.775,0.998932,0.009726505928713637
35.8,0.9904855,0.013774772261075596
35.825,1.005922,0.009726505928713637
35.85,1.021404,0.018286415384611843
35.875,1.006839,0.009726505928713637
35.9,0.9922252,0.009726505928713637
35.925,0.9904325,0.009726505928713637
35.95,0.9886311,0.009726505928713637
35.975,0.9950384,0.009726505928713637
36.0,1.001465,0.009726505928713637
36.025,1.008753,0.009726505928713637
36.05,1.016061,0.009726505928713637
36.075,1.008833,0.009726505928713637
36.1,1.001582,0.009726505928713637
36.125,1.002556,0.009726505928713637
36.15,1.003532,0.009726505928713637
36.175,1.001924,0.009726505928713637
36.2,1.000307,0.009726505928713637
36.225,1.001311,0.009726505928713637
36.25,1.002315,0.009726505928713637
36.275,1.00438,0.009726505928713637
36.3,1.006449,0.009726505928713637
36.325,0.9953436,0.009726505928713637
36.35,0.9842021,0.013827468997672288
36.375,0.9954227,0.009726505928713637
36.4,1.006678,0.009726505928713637
36.425,1.005919,0.009726505928713637
36.45,1.005155,0.009726505928713637
36.475,1.001184,0.009726505928713637
36.5,0.9971966,0.009726505928713637
36.525,0.9960354,0.009726505928713637
36.55,0.9948686,0.009726505928713637
36.575,0.9837385,0.009726505928713637
36.6,0.9725716,0.01965001864802196
36.625,0.9942803,0.009726505928713637
36.65,1.016059,0.020507696037292744
36.675,1.005996,0.009726505928713637
36.7,0.9958966,0.009726505928713637
36.725,0.9941105,0.009726505928713637
36.75,0.9923156,0.012373884848488226
36.775,1.006611,0.009726505928713637
36.8,1.020951,0.012101597902094419
36.825,1.017309,0.009726505928713637
36.85,1.013654,0.009726505928713637
36.875,1.000726,0.009726505928713637
36.9,0.9877543,0.013487744755247943
36.925,0.997201,0.009726505928713637
36.95,1.006678,0.01507270349650014
36.975,0.9920768,0.009726505928713637
37.0,0.9774219,0.01825133496503828
37.025,0.9935113,0.009726505928713637
37.05,1.00965,0.011847306993003626
37.075,1.006256,0.009726505928713637
37.1,1.00285,0.009726505928713637
37.125,0.9945604,0.009726505928713637
37.15,0.9862422,0.011825083449886864
37.175,0.9963831,0.009726505928713637
37.2,1.006557,0.009726505928713637
37.225,0.9995202,0.009726505928713637
37.25,0.9924566,0.009726505928713637
37.275,0.9999926,0.009726505928713637
37.3,1.007551,0.01415830932400608
37.325,0.9915888,0.009726505928713637
37.35,0.9755747,0.014895415850819105
37.375,0.9840903,0.009726505928713637
37.4,0.992633,0.009726505928713637
37.425,0.9998709,0.009726505928713637
37.45,1.007132,0.011864830069926668
37.475,0.9969937,0.009726505928713637
37.5,0.9868179,0.009726505928713637
37.525,0.9845263,0.009726505928713637
37.55,0.9822259,0.009726505928713637
37.575,0.9868336,0.009726505928713637
37.6,0.9914547,0.009726505928713637
37.625,0.9907614,0.009726505928713637
37.65,0.9900645,0.009726505928713637
37.675,0.9889851,0.009726505928713637
37.7,0.9879004,0.009726505928713637
37.725,1.003272,0.009726505928713637
37.75,1.018696,0.021802227039623756
37.775,0.9970682,0.009726505928713637
37.8,0.9753693,0.02794435151515484
37.825,1.000051,0.009726505928713637
37.85,1.024812,0.021392341491838218
37.875,1.013188,0.009726505928713637
37.9,1.001524,0.009726505928713637
37.925,1.004777,0.009726505928713637
37.95,1.008039,0.009726505928713637
37.975,1.01286,0.009726505928713637
38.0,1.017696,0.009726505928713637
38.025,1.012323,0.009726505928713637
38.05,1.006931,0.009726505928713637
38.075,0.9939339,0.009726505928713637
38.1,0.9808941,0.015234739860143232
38.125,0.9934347,0.009726505928713637
38.15,1.006017,0.009726505928713637
38.175,1.00521,0.009726505928713637
38.2,1.004399,0.009726505928713637
38.225,1.008334,0.009726505928713637
38.25,1.01228,0.009726505928713637
38.275,1.013788,0.009726505928713637
38.3,1.015299,0.009726505928713637
38.325,1.013635,0.009726505928713637
38.35,1.011965,0.014300637995334653
38.375,0.9861345,0.009726505928713637
38.4,0.9602153,0.029975973426576763
38.425,0.9850204,0.009726505928713637
38.45,1.009912,0.01812714149183814
38.475,1.005702,0.009726505928713637
38.5,1.001475,0.009726505928713637
38.525,1.007196,0.009726505928713637
38.55,1.012933,0.009726505928713637
38.575,1.011765,0.009726505928713637
38.6,1.010592,0.009726505928713637
38.625,1.011307,0.009726505928713637
38.65,1.012024,0.009726505928713637
38.675,1.011547,0.009726505928713637
38.7,1.011067,0.009726505928713637
38.725,1.011695,0.009726505928713637
38.75,1.012324,0.009726505928713637
38.775,1.001353,0.009726505928713637
38.8,0.9903452,0.009726505928713637
38.825,0.9927994,0.009726505928713637
38.85,0.9952606,0.009726505928713637
38.875,0.9984606,0.009726505928713637
38.9,1.001671,0.009726505928713637
38.925,1.01164,0.009726505928713637
38.95,1.021643,0.015593320279716938
38.975,1.005111,0.009726505928713637
39.0,0.9885175,0.012642746386949733
39.025,0.9931237,0.009726505928713637
39.05,0.9977437,0.009726505928713637
39.075,0.9968604,0.009726505928713637
39.1,0.9959729,0.009726505928713637
39.125,1.002165,0.009726505928713637
39.15,1.008376,0.009726505928713637
39.175,1.012597,0.009726505928713637
39.2,1.016832,0.011949095571092139
39.225,1.002418,0.009726505928713637
39.25,0.9879507,0.009726505928713637
39.275,0.9792476,0.009726505928713637
39.3,0.9705144,0.013676294172497383
39.325,0.9834625,0.009726505928713637
39.35,0.9964523,0.009726505928713637
39.375,0.9995892,0.009726505928713637
39.4,1.002736,0.009726505928713637
39.425,0.9933435,0.009726505928713637
39.45,0.9839162,0.013457175524478782
39.475,0.9948186,0.009726505928713637
39.5,1.005758,0.011140507692304347
39.525,0.9978163,0.009726505928713637
39.55,0.9898468,0.009726505928713637
39.575,0.9901375,0.009726505928713637
39.6,0.990428,0.009726505928713637
39.625,0.9894157,0.009726505928713637
39.65,0.9883984,0.009726505928713637
39.675,0.9757085,0.009726505928713637
39.7,0.9629714,0.017645059673663033
39.725,0.9783032,0.009726505928713637
39.75,0.9936886,0.009726505928713637
39.775,1.008131,0.011909289743586515
39.8,1.02262,0.01812877365967025
39.825,1.007931,0.009726505928713637
39.85,0.9931917,0.022770599533802893
39.875,1.012498,0.009726505928713637
39.9,1.03187,0.012837844522141317
39.925,1.026492,0.009726505928713637
39.95,1.021093,0.009726505928713637
39.975,1.012767,0.009726505928713637
40.0,1.004408,0.009726505928713637
40.025,0.9942691,0.009726505928713637
40.05,0.9840941,0.010956336130539479
40.075,0.9920787,0.009726505928713637
40.1,1.000088,0.009726505928713637
40.125,1.011698,0.009726505928713637
40.15,1.023346,0.015860082051278868
40.175,1.010941,0.009726505928713637
40.2,0.9984895,0.009726505928713637
40.225,0.9960912,0.009726505928713637
40.25,0.9936816,0.009726505928713637
40.275,1.004323,0.009726505928713637
40.3,1.014998,0.01360049557109222
40.325,1.004714,0.009726505928713637
40.35,0.9943931,0.009726505928713637
40.375,0.9988077,0.009726505928713637
40.4,1.003236,0.009726505928713637
40.425,1.00191,0.009726505928713637
40.45,1.000576,0.009726505928713637
40.475,0.991116,0.009726505928713637
40.5,0.9816186,0.01301868648019
40.525,0.994477,0.009726505928713637
40.55,1.007376,0.014261755011651722
40.575,0.9969727,0.009726505928713637
40.6,0.9865321,0.012191881585084885
40.625,0.9973565,0.009726505928713637
40.65,1.008216,0.009726505928713637
40.675,1.005494,0.009726505928713637
40.7,1.002759,0.009726505928713637
40.725,1.003506,0.009726505928713637
40.75,1.004252,0.009726505928713637
40.775,0.9999996,0.009726505928713637
40.8,0.9957297,0.009726505928713637
40.825,1.001342,0.009726505928713637
40.85,1.00697,0.009767499067595664
40.875,0.9950131,0.009726505928713637
40.9,0.9830106,0.013367358275061636
40.925,0.9948858,0.009726505928713637
40.95,1.006801,0.014857246153842985
40.975,0.9943218,0.009726505928713637
41.0,0.9817932,0.012988031701634983
41.025,0.9930676,0.009726505928713637
41.05,1.004376,0.009726505928713637
41.075,1.007102,0.009726505928713637
41.1,1.009832,0.009726505928713637
41.125,1.014804,0.009726505928713637
41.15,1.019789,0.009726505928713637
41.175,1.006761,0.009726505928713637
41.2,0.9936807,0.010471241958045385
41.225,0.9977382,0.009726505928713637
41.25,1.001806,0.010530293240089916
41.275,0.9895935,0.009726505928713637
41.3,0.9773358,0.009726505928713637
41.325,0.9818532,0.009726505928713637
41.35,0.9863819,0.009726505928713637
41.375,0.996141,0.009726505928713637
41.4,1.00593,0.009991534032630645
41.425,1.000555,0.009726505928713637
41.45,0.9951552,0.009726505928713637
41.475,1.002059,0.009726505928713637
41.5,1.008983,0.009726505928713637
41.525,1.007287,0.009726505928713637
41.55,1.00558,0.009726505928713637
41.575,0.9948218,0.009726505928713637
41.6,0.9840232,0.016184595337998653
41.625,0.9975728,0.009726505928713637
41.65,1.011166,0.009726505928713637
41.675,1.014264,0.010084868531465174
41.7,1.017368,0.009726505928713637
41.725,1.003245,0.009726505928713637
41.75,0.9890648,0.016274931701635076
41.775,1.001639,0.009726505928713637
41.8,1.014252,0.018443424941721576
41.825,0.9962112,0.009726505928713637
41.85,0.9781045,0.0196789552447586
41.875,0.9938828,0.009726505928713637
41.9,1.009713,0.01083975477855137
41.925,1.006236,0.009726505928713637
41.95,1.002742,0.009726505928713637
41.975,0.9994339,0.009726505928713637
42.0,0.9961083,0.009726505928713637
42.025,0.9966346,0.009726505928713637
42.05,0.9971579,0.009726505928713637
42.075,0.9934837,0.009726505928713637
42.1,0.9897925,0.009726505928713637
42.125,0.9948187,0.009726505928713637
42.15,0.9998588,0.009726505928713637
42.175,1.00335,0.009726505928713637
42.2,1.00685,0.009726505928713637
42.225,1.001405,0.009726505928713637
42.25,0.9959336,0.009726505928713637
42.275,1.000942,0.009726505928713637
42.3,1.005964,0.009726505928713637
42.325,1.011076,0.009726505928713637
42.35,1.016202,0.011688531701628202
42.375,1.00326,0.009726505928713637
42.4,0.9902665,0.009726505928713637
42.425,0.9882054,0.009726505928713637
42.45,0.9861318,0.009726505928713637
42.475,0.9933423,0.009726505928713637
42.5,1.000575,0.009726505928713637
42.525,0.9987265,0.009726505928713637
42.55,0.9968675,0.009726505928713637
42.575,0.9990654,0.009726505928713637
42.6,1.001267,0.009726505928713637
42.625,1.005449,0.009726505928713637
42.65,1.009642,0.009726505928713637
42.675,1.017693,0.009726505928713637
42.7,1.025769,0.010644164568760939
42.725,1.013165,0.009726505928713637
42.75,1.000509,0.012736410023313383
42.775,1.00943,0.009726505928713637
42.8,1.018377,0.016537648251744974
42.825,0.9989582,0.009726505928713637
42.85,0.9794691,0.020090631701635053
42.875,0.9929323,0.009726505928713637
42.9,1.006441,0.011242113286709987
42.925,1.002522,0.012126587645684306
42.95,0.9985856,0.009726505928713637
42.975,0.9843519,0.009726505928713637
43.0,0.9700609,0.020899466666669975
43.025,0.9877491,0.009726505928713637
43.05,1.005494,0.010438240093236795
43.075,1.007344,0.009726505928713637
43.1,1.009197,0.009726505928713637
43.125,0.9994634,0.009726505928713637
43.15,0.9896923,0.01208951981352313
43.175,0.9960623,0.009726505928713637
43.2,1.002453,0.009726505928713637
43.225,1.004565,0.009726505928713637
43.25,1.00668,0.009726505928713637
43.275,0.9950227,0.009726505928713637
43.3,0.9833218,0.014809593006996469
43.325,0.9941691,0.009726505928713637
43.35,1.005052,0.009726505928713637
43.375,1.011536,0.009726505928713637
43.4,1.018042,0.01166479696969347
43.425,1.007043,0.009726505928713637
43.45,0.9960001,0.010217939860143188
43.475,0.9991657,0.009726505928713637
43.5,1.002341,0.009726505928713637
43.525,1.007223,0.009726505928713637
43.55,1.01212,0.009726505928713637
43.575,1.002619,0.009726505928713637
43.6,0.9930836,0.011485318414921841
43.625,1.000653,0.009726505928713637
43.65,1.008248,0.009726505928713637
43.675,1.005063,0.009726505928713637
43.7,1.001863,0.009726505928713637
43.725,0.9920297,0.009726505928713637
43.75,0.9821566,0.009726505928713637
43.775,0.9842001,0.009726505928713637
43.8,0.9862493,0.009726505928713637
43.825,0.9923252,0.009726505928713637
43.85,0.9984214,0.009726505928713637
43.875,1.001892,0.009726505928713637
43.9,1.005374,0.009726505928713637
43.925,1.009797,0.009726505928713637
43.95,1.014235,0.009726505928713637
43.975,1.014103,0.009726505928713637
44.0,1.013969,0.009726505928713637
44.025,1.002865,0.009726505928713637
44.05,0.9917222,0.009726505928713637
44.075,0.9928486,0.009726505928713637
44.1,0.9939786,0.009726505928713637
44.125,1.001786,0.009726505928713637
44.15,1.009622,0.009726505928713637
44.175,1.007363,0.009726505928713637
44.2,1.005095,0.009726505928713637
44.225,1.00312,0.009726505928713637
44.25,1.001137,0.009726505928713637
44.275,1.000785,0.009726505928713637
44.3,1.000431,0.009726505928713637
44.325,0.9904413,0.009726505928713637
44.35,0.980417,0.010106330069933445
44.375,0.9853288,0.009726505928713637
44.4,0.9902588,0.009726505928713637
44.425,0.9958231,0.009726505928713637
44.45,1.001408,0.016347376223773025
44.475,0.9835064,0.009726505928713637
44.5,0.9655359,0.01639380023310355
44.525,0.9742302,0.009726505928713637
44.55,0.9829547,0.009726505928713637
44.575,0.9995242,0.009726505928713637
44.6,1.016152,0.013398255011651594
44.625,1.012136,0.009726505928713637
44.65,1.008106,0.009726505928713637
44.675,1.012438,0.009726505928713637
44.7,1.016786,0.009726505928713637
44.725,1.012969,0.009726505928713637
44.75,1.009136,0.009726505928713637
44.775,1.006125,0.009726505928713637
44.8,1.003103,0.009726505928713637
44.825,0.9979556,0.009726505928713637
44.85,0.9927903,0.01171576713287048
44.875,1.006707,0.009726505928713637
44.9,1.020674,0.022052577622374336
44.925,1.000329,0.009726505928713637
44.95,0.9799071,0.009726505928713637
44.975,0.9771107,0.00990981351981668
45.0,0.9743034,0.012089837995341246
45.025,0.9893782,0.009726505928713637
45.05,1.004506,0.009726505928713637
45.075,1.008953,0.009726505928713637
45.1,1.013415,0.009726505928713637
45.125,1.003712,0.009726505928713637
45.15,0.9939737,0.014223988344991723
45.175,1.004551,0.009726505928713637
45.2,1.015168,0.010012471794868416
45.225,1.00954,0.009726505928713637
45.25,1.00389,0.009726505928713637
45.275,0.9968003,0.009726505928713637
45.3,0.9896849,0.00975780699301032
45.325,0.9972945,0.009726505928713637
45.35,1.00493,0.009726505928713637
45.375,1.009308,0.009726505928713637
45.4,1.013702,0.009726505928713637
45.425,1.009969,0.009726505928713637
45.45,1.006221,0.009726505928713637
45.475,1.001756,0.009726505928713637
45.5,0.9972732,0.009726505928713637
45.525,0.9988636,0.009726505928713637
45.55,1.000458,0.009726505928713637
45.575,1.009157,0.009726505928713637
45.6,1.017885,0.00981734708624371
45.625,1.009894,0.009726505928713637
45.65,1.001871,0.009726505928713637
45.675,0.9920217,0.009726505928713637
45.7,0.9821331,0.009726505928713637
45.725,0.9789478,0.009726505928713637
45.75,0.9757484,0.009726505928713637
45.775,0.9883187,0.009726505928713637
45.8,1.000931,0.009726505928713637
45.825,0.9995441,0.009726505928713637
45.85,0.9981505,0.009726505928713637
45.875,0.9984346,0.009726505928713637
45.9,0.9987184,0.009726505928713637
45.925,0.9907659,0.009726505928713637
45.95,0.9827813,0.009892235897439261
45.975,0.9907636,0.009726505928713637
46.0,0.9987735,0.009726505928713637
46.025,1.002578,0.009726505928713637
46.05,1.006394,0.009726505928713637
46.075,0.9996632,0.009726505928713637
46.1,0.9929067,0.009726505928713637
46.125,0.995819,0.009726505928713637
46.15,0.9987401,0.009726505928713637
46.175,0.9940692,0.009726505928713637
46.2,0.9893781,0.009836111421914873
46.225,1.001152,0.009726505928713637
46.25,1.012968,0.009840516083912787
46.275,1.009536,0.009726505928713637
46.3,1.006089,0.009726505928713637
46.325,1.001025,0.009726505928713637
46.35,0.995939,0.010642722144525218
46.375,1.007896,0.009726505928713637
46.4,1.019893,0.017132142657339422
46.425,1.0046,0.009726505928713637
46.45,0.9892458,0.01520550023310352
46.475,0.9988214,0.009726505928713637
46.5,1.008429,0.009726505928713637
46.525,1.010947,0.009726505928713637
46.55,1.013469,0.009726505928713637
46.575,1.006993,0.009726505928713637
46.6,1.00049,0.010961619114222332
46.625,1.010022,0.009726505928713637
46.65,1.019585,0.009726505928713637
46.675,1.015037,0.009726505928713637
46.7,1.010466,0.009726505928713637
46.725,1.005462,0.009726505928713637
46.75,1.000433,0.009726505928713637
46.775,1.002448,0.009726505928713637
46.8,1.004464,0.009726505928713637
46.825,0.9967467,0.009726505928713637
46.85,0.9889975,0.012502381818185082
46.875,1.001741,0.009726505928713637
46.9,1.014527,0.010704131468527889
46.925,1.009756,0.009726505928713637
46.95,1.004961,0.009726505928713637
46.975,0.998599,0.009726505928713637
47.0,0.9922075,0.009726505928713637
47.025,0.9966362,0.009726505928713637
47.05,1.001075,0.009726505928713637
47.075,0.9960418,0.009726505928713637
47.1,0.990985,0.009726505928713637
47.125,0.9889556,0.009726505928713637
47.15,0.9869134,0.009726505928713637
47.175,0.9952761,0.009726505928713637
47.2,1.003665,0.009726505928713637
47.225,0.9965507,0.009726505928713637
47.25,0.9894027,0.009726505928713637
47.275,0.9934897,0.009726505928713637
47.3,0.9975855,0.009726505928713637
47.325,0.993032,0.009726505928713637
47.35,0.9884564,0.013638422843826215
47.375,1.005083,0.009726505928713637
47.4,1.021765,0.017283975990672662
47.425,1.010941,0.01076330769230438
47.45,1.000069,0.009726505928713637
47.475,0.985421,0.010121450116553521
47.5,0.9707094,0.020090054312357664
47.525,0.9880542,0.009726505928713637
47.55,1.005454,0.016431534032630757
47.575,0.9991611,0.009726505928713637
47.6,0.9928393,0.009726505928713637
47.625,0.9968366,0.009726505928713637
47.65,1.000843,0.009726505928713637
47.675,1.012205,0.009726505928713637
47.7,1.023604,0.019218094172490874
47.725,1.004614,0.009726505928713637
47.75,0.9855447,0.016117371095574318
47.775,0.9924605,0.009726505928713637
47.8,0.9993942,0.009726505928713637
47.825,1.005059,0.009726505928713637
47.85,1.010739,0.009726505928713637
47.875,1.00887,0.009726505928713637
47.9,1.006988,0.009726505928713637
47.925,0.9920893,0.009726505928713637
47.95,0.9771275,0.02089313892774236
47.975,0.9947882,0.009726505928713637
48.0,1.01251,0.012276762703959276
48.025,1.009493,0.009726505928713637
48.05,1.006458,0.009726505928713637
48.075,0.9954774,0.009726505928713637
48.1,0.9844521,0.009726505928713637
48.125,0.9804702,0.009726505928713637
48.15,0.9764677,0.009726505928713637
48.175,0.9776672,0.009726505928713637
48.2,0.9788653,0.009726505928713637
48.225,0.9968421,0.009726505928713637
48.25,1.014882,0.017692610722607416
48.275,1.004555,0.009726505928713637
48.3,0.994187,0.012026831934735305
48.325,1.003562,0.009726505928713637
48.35,1.012966,0.009726505928713637
48.375,1.015841,0.009726505928713637
48.4,1.018722,0.009726505928713637
48.425,1.021127,0.009726505928713637
48.45,1.023536,0.009726505928713637
48.475,1.014986,0.009726505928713637
48.5,1.006397,0.009726505928713637
48.525,0.9974224,0.009726505928713637
48.55,0.9884112,0.010305730536133817
48.575,0.9957671,0.009726505928713637
48.6,1.003144,0.009726505928713637
48.625,1.00178,0.009726505928713637
48.65,1.000407,0.009726505928713637
48.675,0.9943861,0.009726505928713637
48.7,0.9883369,0.009726505928713637
48.725,0.9927799,0.009726505928713637
48.75,0.9972348,0.009726505928713637
48.775,0.9948864,0.009726505928713637
48.8,0.9925247,0.009726505928713637
48.825,0.9857922,0.009726505928713637
48.85,0.9790311,0.010596182284385525
48.875,0.989152,0.009726505928713637
48.9,0.9993063,0.009726505928713637
48.925,1.008991,0.009726505928713637
48.95,1.01871,0.010441562237758939
48.975,1.013593,0.009726505928713637
49.0,1.008452,0.009726505928713637
49.025,0.9977705,0.009726505928713637
49.05,0.9870476,0.018359473193476528
49.075,1.005033,0.009726505928713637
49.1,1.023079,0.016947248717945396
49.125,1.014223,0.009726505928713637
49.15,1.005331,0.009726505928713637
49.175,1.001537,0.009726505928713637
49.2,0.9977241,0.009726505928713637
49.225,1.001414,0.009726505928713637
49.25,1.005114,0.009726505928713637
49.275,1.003018,0.009726505928713637
49.3,1.000911,0.009726505928713637
49.325,0.9952818,0.009726505928713637
49.35,0.98963,0.009726505928713637
49.375,0.9958781,0.009726505928713637
49.4,1.002147,0.009726505928713637
49.425,0.9974155,0.009726505928713637
49.45,0.9926624,0.009726505928713637
49.475,0.9926326,0.009726505928713637
49.5,0.9925987,0.009726505928713637
49.525,0.998092,0.009726505928713637
49.55,1.003602,0.01256290559440254
49.575,0.9879733,0.009726505928713637
49.6,0.972286,0.026680736363639657
49.625,1.000511,0.009726505928713637
49.65,1.028838,0.02407740979020634
49.675,1.01545,0.009726505928713637
49.7,1.002008,0.009726505928713637
49.725,1.001675,0.009726505928713637
49.75,1.001338,0.009726505928713637
49.775,0.993027,0.009726505928713637
49.8,0.9846846,0.012622699766903
49.825,1.00023,0.009726505928713637
49.85,1.01583,0.02438873193472868
49.875,0.9924167,0.009726505928713637
49.9,0.9689154,0.02179381678322012
49.925,0.9814562,0.011019830303033551
49.95,0.9940436,0.009726505928713637
49.975,1.001019,0.009726505928713637
50.0,1.008018,0.011777951515148155
50.025,0.9985035,0.009726505928713637
50.05,0.988952,0.009743767832171235
50.075,0.9949983,0.009726505928713637
50.1,1.001065,0.009726505928713637
50.125,1.002223,0.009726505928713637
50.15,1.003385,0.009726505928713637
50.175,1.012339,0.009726505928713637
50.2,1.021325,0.01288741375291047
50.225,1.010244,0.009726505928713637
50.25,0.9991181,0.009726505928713637
50.275,0.9842054,0.009726505928713637
50.3,0.9692382,0.022522185314688636
50.325,0.9906535,0.009726505928713637
50.35,1.012143,0.009726505928713637
50.375,1.022829,0.009726505928713637
50.4,1.033553,0.011715742657339101
50.425,1.026863,0.009726505928713637
50.45,1.020146,0.009726505928713637
50.475,1.016472,0.009726505928713637
50.5,1.012782,0.009726505928713637
50.525,1.020567,0.009726505928713637
50.55,1.028378,0.0126717627039592
50.575,1.015056,0.009726505928713637
50.6,1.001685,0.009726505928713637
50.625,1.000323,0.009726505928713637
50.65,0.9989556,0.009726505928713637
50.675,0.9922791,0.009726505928713637
50.7,0.9855756,0.009726505928713637
50.725,0.990978,0.009726505928713637
50.75,0.9963993,0.010879053613050305
50.775,0.9841151,0.009726505928713637
50.8,0.9717854,0.01627595011655336
50.825,0.9886262,0.009726505928713637
50.85,1.005525,0.011229920745917443
50.875,1.001267,0.009726505928713637
50.9,0.9969911,0.009726505928713637
50.925,1.006485,0.009726505928713637
50.95,1.016013,0.014992832167828762
50.975,0.9988514,0.009726505928713637
51.0,0.9816216,0.014462520745924135
51.025,0.9885313,0.009726505928713637
51.05,0.9954637,0.009726505928713637
51.075,0.9980422,0.009726505928713637
51.1,1.000628,0.009726505928713637
51.125,0.9974564,0.009726505928713637
51.15,0.9942713,0.009726505928713637
51.175,0.9869061,0.009726505928713637
51.2,0.9795101,0.009726505928713637
51.225,0.9903186,0.009726505928713637
51.25,1.001166,0.009726509090905777
51.275,0.995946,0.009726505928713637
51.3,0.9907054,0.014246008624712037
51.325,1.008834,0.009726505928713637
51.35,1.027024,0.014643513752910398
51.375,1.01842,0.009726505928713637
51.4,1.009782,0.009726505928713637
51.425,1.004299,0.009726505928713637
51.45,0.9987916,0.009726505928713637
51.475,0.9937723,0.009726505928713637
51.5,0.9887301,0.009726505928713637
51.525,0.9852863,0.009726505928713637
51.55,0.981827,0.010775440093243382
51.575,0.9975961,0.009726505928713637
51.6,1.013418,0.016389127272723902
51.625,1.003133,0.009726505928713637
51.65,0.9928077,0.009800163636367154
51.675,0.9972211,0.009726505928713637
51.7,1.001648,0.009726505928713637
51.725,1.004105,0.009726505928713637
51.75,1.006568,0.0099511011654978
51.775,0.9947363,0.009726505928713637
51.8,0.9828592,0.009726505928713637
51.825,0.9862055,0.009726505928713637
51.85,0.9895599,0.009726505928713637
51.875,0.9963572,0.009726505928713637
51.9,1.003177,0.009726505928713637
51.925,1.014656,0.009726505928713637
51.95,1.026175,0.009726505928713637
51.975,1.021134,0.009726505928713637
52.0,1.016069,0.009726505928713637
52.025,0.9979075,0.009726505928713637
52.05,0.9796788,0.014440279020982438
52.075,0.9852747,0.009726505928713637
52.1,0.9908875,0.009726505928713637
52.125,0.9992676,0.009726505928713637
52.15,1.007675,0.009726505928713637
52.175,1.012676,0.009726505928713637
52.2,1.017691,0.009726505928713637
52.225,1.012915,0.009726505928713637
52.25,1.008117,0.009726505928713637
52.275,1.004956,0.009726505928713637
52.3,1.00178,0.009726505928713637
52.325,1.004299,0.009726505928713637
52.35,1.006822,0.011674968764565419
52.375,0.9910416,0.009726505928713637
52.4,0.975199,0.015862475757579042
52.425,0.9860879,0.009726505928713637
52.45,0.997014,0.009726505928713637
52.475,0.9971226,0.009726505928713637
52.5,0.9972269,0.009726505928713637
52.525,0.9957249,0.009726505928713637
52.55,0.9942135,0.009726505928713637
52.575,0.9871601,0.009726505928713637
52.6,0.9800772,0.011770058974362452
52.625,0.9892379,0.011072841958045476
52.65,0.9984273,0.009726505928713637
52.675,1.019366,0.010085740792537434
52.7,1.04038,0.03241718764568424
52.725,1.009447,0.009726505928713637
52.75,0.9783899,0.016659888578091975
52.775,0.9745942,0.012803272494175899
52.8,0.9707797,0.011986950349653691
52.825,0.9840837,0.009726505928713637
52.85,0.99743,0.009726505928713637
52.875,1.00366,0.009726505928713637
52.9,1.009909,0.00989980139859803
52.925,0.9995875,0.009726505928713637
52.95,0.9892217,0.009726505928713637
52.975,0.9874481,0.009726505928713637
53.0,0.9856626,0.009726505928713637
53.025,0.9861028,0.009726505928713637
53.05,0.986539,0.010227431934735298
53.075,1.006108,0.009726505928713637
53.1,1.02574,0.01661945687645372
53.125,1.016809,0.009726505928713637
53.15,1.00784,0.009753937529140888
53.175,1.013816,0.009726505928713637
53.2,1.019811,0.009726505928713637
53.225,1.011469,0.009726505928713637
53.25,1.00309,0.009726505928713637
53.275,1.001273,0.009726505928713637
53.3,0.9994462,0.009726505928713637
53.325,1.004778,0.009726505928713637
53.35,1.010124,0.009726505928713637
53.375,1.00265,0.009726505928713637
53.4,0.9951435,0.011930877156180575
53.425,1.006837,0.009726505928713637
53.45,1.01857,0.014286637296033744
53.475,1.006922,0.009726505928713637
53.5,0.9952225,0.009726505928713637
53.525,0.992518,0.009726505928713637
53.55,0.989799,0.009726505928713637
53.575,0.9978019,0.009726505928713637
53.6,1.005828,0.009726505928713637
53.625,1.007111,0.009726505928713637
53.65,1.008393,0.009726505928713637
53.675,1.006182,0.009726505928713637
53.7,1.003957,0.009726505928713637
53.725,1.005643,0.009726505928713637
53.75,1.00733,0.009726505928713637
53.775,0.9984654,0.009726505928713637
53.8,0.9895647,0.009726505928713637
53.825,0.9956563,0.009726505928713637
53.85,1.001764,0.009726505928713637
53.875,1.003603,0.009726505928713637
53.9,1.005444,0.009726505928713637
53.925,1.006414,0.009726505928713637
53.95,1.007382,0.009726505928713637
53.975,1.006159,0.009726505928713637
54.0,1.004926,0.009726505928713637
54.025,1.009984,0.009726505928713637
54.05,1.015054,0.009726505928713637
54.075,1.014934,0.009726505928713637
54.1,1.014811,0.010524237529134117
54.125,0.9976671,0.009726505928713637
54.15,0.9804569,0.015767737529140846
54.175,0.9882816,0.009726505928713637
54.2,0.9961312,0.009726505928713637
54.225,0.9983161,0.009726505928713637
54.25,1.000504,0.009726505928713637
54.275,0.9949611,0.009726505928713637
54.3,0.9893943,0.010714664801868223
54.325,1.000132,0.009726505928713637
54.35,1.010903,0.011949911888108566
54.375,1.002642,0.009726505928713637
54.4,0.9943458,0.009726505928713637
54.425,0.9934045,0.009726505928713637
54.45,0.9924549,0.009726505928713637
54.475,1.000442,0.009726505928713637
54.5,1.008456,0.009726505928713637
54.525,1.004976,0.009726505928713637
54.55,1.00148,0.009726505928713637
54.575,0.9912616,0.009726505928713637
54.6,0.9810033,0.013529648951052242
54.625,0.9897511,0.009726505928713637
54.65,0.9985268,0.009726505928713637
54.675,1.0017,0.011728046853143548
54.7,1.004881,0.01466381025640695
54.725,0.9849461,0.009726505928713637
54.75,0.9649317,0.026836956177159532
54.775,0.9875835,0.009726505928713637
54.8,1.01031,0.01580116107225793
54.825,1.006313,0.009726505928713637
54.85,1.002298,0.009726505928713637
54.875,0.9966608,0.009726505928713637
54.9,0.9910004,0.009726505928713637
54.925,0.9886636,0.009726505928713637
54.95,0.986314,0.009726505928713637
54.975,0.9807498,0.009726505928713637
55.0,0.9751604,0.009726505928713637
